7.5,,3.75,,1.125,,0.5,,0.25,,0.1,,0.05,,0.025,,0.00125,,fondo,,
Wavelength (nm),Intensity (a.u.),Wavelength (nm),Intensity (a.u.),Wavelength (nm),Intensity (a.u.),Wavelength (nm),Intensity (a.u.),Wavelength (nm),Intensity (a.u.),Wavelength (nm),Intensity (a.u.),Wavelength (nm),Intensity (a.u.),Wavelength (nm),Intensity (a.u.),Wavelength (nm),Intensity (a.u.),Wavelength (nm),Intensity (a.u.),
360,3.406857491,360,2.218645334,360,2.440068483,360,0.9260075688,360,2.302449942,360,0.7718852162,360,0.3999466598,360,1.103911638,360,1.51745069,360,-0.09389230609,
361.0700073,3.403615952,361.0700073,2.19119215,361.0700073,2.820432425,361.0700073,1.527850509,361.0700073,2.487236738,361.0700073,0.8928970098,361.0700073,0.6423196793,361.0700073,0.7660267353,361.0700073,1.69923532,361.0700073,0.5113900304,
362,3.515014648,362,1.812688828,362,2.208998203,362,0.9656156898,362,2.360170841,362,0.9943053722,362,0.5631687641,362,1.088602781,362,1.611492276,362,0.09626028687,
363.0700073,3.395282507,363.0700073,1.859312057,363.0700073,2.390438318,363.0700073,0.9539502263,363.0700073,1.842531085,363.0700073,0.4630915821,363.0700073,0.3763289154,363.0700073,1.058914065,363.0700073,1.389554381,363.0700073,-0.04679238051,
364,3.170549154,364,1.692424178,364,2.263329744,364,0.8465137482,364,1.517721653,364,0.7230657935,364,0.2754315138,364,1.003584266,364,0.8354994059,364,0.1416363716,
365.0700073,3.054471493,365.0700073,1.892473102,365.0700073,1.61319232,365.0700073,0.9449669123,365.0700073,1.374255657,365.0700073,0.5073332787,365.0700073,0.4464086294,365.0700073,0.6716238856,365.0700073,0.701032877,365.0700073,0.1872834563,
366,2.804095507,366,1.602207541,366,1.745052218,366,0.8334105015,366,1.26691103,366,0.2737975717,366,0.4592844248,366,0.5773116946,366,0.6079880595,366,-0.04720543697,
367.0700073,2.364169836,367.0700073,1.473543286,367.0700073,1.344319224,367.0700073,0.6454111338,367.0700073,1.329543471,367.0700073,0.1849967688,367.0700073,0,367.0700073,0.1930036247,367.0700073,0.4353504777,367.0700073,0.04732159898,
368,2.774165392,368,1.217444181,368,1.430231452,368,0.6748776436,368,1.109631658,368,0.863847971,368,0.2652871907,368,0.6926578283,368,0.8784908652,368,0.1880936772,
369.0700073,2.558542967,369.0700073,1.71534133,369.0700073,1.069900155,369.0700073,0.5291239023,369.0700073,0.986989677,369.0700073,0.6256703734,369.0700073,0.4359007776,369.0700073,0.8164049387,369.0700073,0.4210329354,369.0700073,-0.04865469784,
370,2.441683054,370,1.606497288,370,1.21114254,370,0.6012970805,370,0.7244080305,370,0.41633901,370,0.4133939445,370,0.6912897229,370,0.04604899883,370,0.1930129379,
371.0700073,2.517872572,371.0700073,1.463258505,371.0700073,1.316482306,371.0700073,0.8482142687,371.0700073,0.8669069409,371.0700073,0.6041172743,371.0700073,0.2397736609,371.0700073,0.6082440615,371.0700073,0.4373177886,371.0700073,-0.3349602818,
372,2.58511138,372,1.583567142,372,1.076148272,372,0.7115855217,372,1.063122869,372,0.08998065442,372,0.1481993794,372,0.5932664275,372,0.23601605,372,-0.1439677626,
373.0700073,2.622528076,373.0700073,1.322401404,373.0700073,1.36913693,373.0700073,0.5689526796,373.0700073,1.128770113,373.0700073,0.4522635639,373.0700073,0.2762812674,373.0700073,0.516674459,373.0700073,0.4472938478,373.0700073,0.04883527756,
374,2.818489313,374,1.29759717,374,1.401112199,374,0.5284713507,374,0.5669181943,374,0.8246289492,374,0.445176512,374,0.27225703,374,0.1415161043,374,0.1435544044,
375.0700073,2.617560625,375.0700073,1.585647583,375.0700073,1.505131125,375.0700073,0.7536128759,375.0700073,0.7217611074,375.0700073,0.5883417726,375.0700073,0.4578964114,375.0700073,0.5323009491,375.0700073,0.2468526363,375.0700073,0.09521995485,
376,2.453362942,376,1.380381346,376,1.361655712,376,0.9084616899,376,0.7569685578,376,0.4732383788,376,0.3157989681,376,0.5016645789,376,0.1435132027,376,-0.09448223561,
377.0700073,2.515783072,377.0700073,1.553001642,377.0700073,1.284168005,377.0700073,0.6617841721,377.0700073,0.4214272201,377.0700073,0.2255605161,377.0700073,0.4612546265,377.0700073,0.1871782839,377.0700073,0.4653543532,377.0700073,0.04708762839,
378,2.572711706,378,1.20817852,378,0.8029751778,378,0.4341219962,378,0.8665906787,378,0.4829051495,378,0.2309362143,378,-0.09430848062,378,0.1414293796,378,-0.04820438847,
379.0700073,2.6332829,379.0700073,1.332301855,379.0700073,1.334621906,379.0700073,0.3708167374,379.0700073,0.7439784408,379.0700073,0.3596313894,379.0700073,0.1416564286,379.0700073,0.2368209064,379.0700073,0.4331921637,379.0700073,0.04556846619,
380,2.717391253,380,1.669155836,380,1.32376802,380,0.4270219505,380,0.5496519208,380,0.5480954051,380,0.1880052537,380,0.613904953,380,0.4211117327,380,-0.4687133729,
381.0700073,2.686632872,381.0700073,1.262406349,381.0700073,1.411784172,381.0700073,0.5319856405,381.0700073,0.6875214577,381.0700073,0.5122235417,381.0700073,0.2716284096,381.0700073,0.4812319577,381.0700073,0.09768486768,381.0700073,0.04573310167,
382,2.428964138,382,1.762791514,382,1.307465196,382,0.5767844319,382,0.6724949479,382,0.4897813797,382,0.1357343346,382,0.4283062816,382,0.1817933917,382,0.04925380647,
383.0700073,2.778757811,383.0700073,1.776583672,383.0700073,1.098096609,383.0700073,0.9766925573,383.0700073,0.6300629973,383.0700073,0.3987064064,383.0700073,0.09077293426,383.0700073,0.2782157063,383.0700073,0.09211920202,383.0700073,0.04827652872,
384,2.552997589,384,1.444825649,384,1.244555116,384,0.6948667169,384,0.6264823079,384,0.6977393031,384,0.3187613785,384,0.4635209143,384,0.1420925558,384,0.2365632057,
385.0700073,2.317649126,385.0700073,1.805928826,385.0700073,0.959149003,385.0700073,0.7164927721,385.0700073,0.4556431472,385.0700073,0.5485463738,385.0700073,0.279368639,385.0700073,0.6542973518,385.0700073,0.1843148023,385.0700073,0.04873531684,
386,2.459484339,386,1.370050669,386,1.222707391,386,0.6166982651,386,0.5702880025,386,0.586986959,386,0.2308935523,386,0.1892147511,386,0.3352972269,386,0,
387.0700073,2.716530085,387.0700073,1.732409358,387.0700073,1.174398065,387.0700073,0.6468305588,387.0700073,0.8618343472,387.0700073,0.2731742859,387.0700073,0.5147885084,387.0700073,0.4304984212,387.0700073,0.60872823,387.0700073,0.04899558797,
388,2.899197102,388,1.853568077,388,1.048218012,388,0.9806980491,388,1.010189772,388,0.4845388234,388,0.8146834373,388,0.6501044631,388,0.560171783,388,0.2946375906,
389.0700073,3.246893883,389.0700073,1.865105271,389.0700073,1.181981325,389.0700073,1.479820609,389.0700073,0.7181328535,389.0700073,0.7591319084,389.0700073,0.6415250301,389.0700073,0.6227843165,389.0700073,0.4893086255,389.0700073,0.1849540025,
390,3.31906724,390,2.318977833,390,1.771823764,390,1.104045153,390,1.226348996,390,0.57981354,390,0.6844938993,390,0.4175752699,390,0.439753741,390,0.6200268269,
391.0700073,3.74949789,391.0700073,2.791912556,391.0700073,1.692499518,391.0700073,1.396836877,391.0700073,1.083717108,391.0700073,1.110545635,391.0700073,0.8203445673,391.0700073,0.915625155,391.0700073,0.8564495444,391.0700073,0.7309607267,
392,4.042179108,392,2.728761196,392,2.207974195,392,1.501435161,392,1.617832065,392,0.9436506033,392,1.209731579,392,1.422272801,392,1.175751328,392,1.230895519,
393.0700073,4.834774971,393.0700073,3.908557892,393.0700073,2.732607603,393.0700073,1.708217859,393.0700073,2.083242893,393.0700073,1.596523046,393.0700073,1.590974808,393.0700073,1.662384748,393.0700073,1.660723925,393.0700073,1.101928473,
394,5.28109026,394,4.312365532,394,2.860238314,394,1.673173547,394,2.121513128,394,1.839249611,394,1.654868007,394,1.613423705,394,1.61891675,394,1.868634939,
395.0700073,5.79088974,395.0700073,4.893298626,395.0700073,3.274717331,395.0700073,2.520112276,395.0700073,2.448646307,395.0700073,2.119673252,395.0700073,2.172758341,395.0700073,2.02000308,395.0700073,1.323424578,395.0700073,2.237692595,
396,6.726752758,396,4.897805214,396,3.425876379,396,2.626254082,396,2.672934294,396,2.27169466,396,2.080155373,396,2.346867085,396,2.056727409,396,1.803854585,
397.0700073,6.86726284,397.0700073,5.935228348,397.0700073,3.719240665,397.0700073,2.595268011,397.0700073,2.669981241,397.0700073,2.150635958,397.0700073,2.307230949,397.0700073,2.133307934,397.0700073,1.763750315,397.0700073,2.185845613,
398,7.379268169,398,6.399781704,398,3.926761389,398,2.82037735,398,2.383957386,398,2.047273397,398,2.012164593,398,1.650865555,398,2.19340992,398,1.83595717,
399.0700073,8.088330269,399.0700073,6.644517899,399.0700073,4.025025368,399.0700073,2.607788563,399.0700073,2.285505295,399.0700073,2.334267139,399.0700073,2.442886114,399.0700073,1.96666038,399.0700073,1.966015935,399.0700073,1.759223938,
400,8.671553612,400,6.826266766,400,4.411512852,400,2.70979023,400,2.24456811,400,1.852353811,400,2.038966894,400,1.942575574,400,1.963626146,400,1.721993685,
401.0700073,10.12471199,401.0700073,7.665567398,401.0700073,4.428358555,401.0700073,2.387602568,401.0700073,1.679966331,401.0700073,1.674132466,401.0700073,1.561208487,401.0700073,1.452103257,401.0700073,1.43107748,401.0700073,1.43777895,
402,10.59237194,402,8.868690491,402,4.853307724,402,2.132474422,402,1.564801216,402,1.663369894,402,1.320943832,402,1.050683022,402,1.263216972,402,0.8195140958,
403.0700073,11.90850735,403.0700073,10.05651283,403.0700073,4.944110394,403.0700073,2.280348778,403.0700073,1.441257238,403.0700073,0.7135382295,403.0700073,1.154361129,403.0700073,0.6945822239,403.0700073,0.9927200079,403.0700073,0.6712052822,
404,14.3204422,404,11.58233166,404,5.100457191,404,1.997134686,404,1.747849584,404,0.848536253,404,0.6628788114,404,0.5378972888,404,0.5553241968,404,0.528008461,
405.0700073,15.55575275,405.0700073,12.6744957,405.0700073,6.207989216,405.0700073,2.5109272,405.0700073,1.128362536,405.0700073,0.7847239971,405.0700073,0.6955070496,405.0700073,0.5289224386,405.0700073,0.6477882862,405.0700073,0.2434867322,
406,17.70856476,406,14.89774323,406,7.048658371,406,1.954165936,406,1.160714269,406,0.8547777534,406,0.539059341,406,0.5913951993,406,0.5777007341,406,0.5670687556,
407.0700073,20.57834435,407.0700073,16.99900436,407.0700073,8.140937805,407.0700073,3.149828434,407.0700073,1.348132849,407.0700073,0.6007949114,407.0700073,0.4126547575,407.0700073,0.4859794974,407.0700073,0.1472248137,407.0700073,0.1896903217,
408,23.84481239,408,19.66534424,408,8.771148682,408,3.066544056,408,1.321377993,408,0.373657167,408,0.844872117,408,0.723289907,408,0.3189938068,408,-0.09691800922,
409.0700073,27.2994175,409.0700073,24.09962463,409.0700073,10.30039024,409.0700073,3.91406846,409.0700073,1.737348557,409.0700073,0.7675290108,409.0700073,0.4589682519,409.0700073,0.8414592147,409.0700073,0.2860411704,409.0700073,0.2415575534,
410,31.69263458,410,26.1245594,410,12.37738419,410,3.748057365,410,1.585432053,410,1.073412061,410,0.6574004889,410,0.7334246039,410,0.5185499191,410,0.09340556711,
411.0700073,37.17787933,411.0700073,30.55351257,411.0700073,13.64555931,411.0700073,4.58266592,411.0700073,1.929982066,411.0700073,1.402590036,411.0700073,0.459495455,411.0700073,0.5140859485,411.0700073,0.1884215027,411.0700073,0,
412,42.26221848,412,35.36457443,412,15.41298866,412,5.267778873,412,1.872746825,412,1.08347249,412,0.9232798219,412,0.4250897467,412,0.0930968672,412,0.1962034553,
413.0700073,47.94966507,413.0700073,40.33832169,413.0700073,17.62036896,413.0700073,6.17471838,413.0700073,2.200170755,413.0700073,0.9884213805,413.0700073,0.5096604228,413.0700073,0.791413188,413.0700073,0.6125430465,413.0700073,0,
414,54.16243744,414,46.22881699,414,19.83027267,414,7.2568326,414,2.669320822,414,1.304367304,414,0.7827608585,414,0.8945807219,414,0.3333333433,414,0.04731712118,
415.0700073,63.69202423,415.0700073,52.78640366,415.0700073,23.47377968,415.0700073,8.184728622,415.0700073,3.198342085,415.0700073,1.993656635,415.0700073,0.9881423116,415.0700073,0.655246675,415.0700073,0.3892754614,415.0700073,0.1867152154,
416,69.7946167,416,58.72640228,416,26.22922516,416,9.118540764,416,3.461485147,416,1.850180507,416,0.5535821319,416,0.9043743014,416,0.3309223354,416,0.4832318425,
417.0700073,80.12187195,417.0700073,67.48704529,417.0700073,29.51631165,417.0700073,10.14351559,417.0700073,4.337305069,417.0700073,1.830998778,417.0700073,1.307006478,417.0700073,0.856775701,417.0700073,0.4048992693,417.0700073,0,
418,91.85721588,418,76.33265686,418,32.95648193,418,11.53204727,418,4.548378468,418,2.06535697,418,1.111059666,418,0.9912205935,418,0.7264626622,418,-0.04683401808,
419.0700073,101.9282532,419.0700073,84.5475769,419.0700073,38.23420715,419.0700073,13.60976219,419.0700073,5.164685249,419.0700073,2.328397274,419.0700073,1.327291846,419.0700073,0.9000900388,419.0700073,0.6897503138,419.0700073,-0.1428571343,
420,114.6815948,420,94.11864471,420,42.17584991,420,15.80687618,420,6.292283535,420,2.761286736,420,1.107419729,420,1.118047118,420,0.6517994404,420,-0.1465702504,
421.0599976,127.4017868,421.0599976,105.2294846,421.0599976,48.2015686,421.0599976,17.15526581,421.0599976,6.190411568,421.0599976,3.202488899,421.0599976,1.928197622,421.0599976,1.222972274,421.0599976,0.5049345493,421.0599976,0.1436231434,
421.9599915,140.9550934,421.9599915,117.8667603,421.9599915,53.76247025,421.9599915,19.15794182,421.9599915,7.366143227,421.9599915,3.932363272,421.9599915,1.90381217,421.9599915,0.9331565499,421.9599915,0.8732777238,421.9599915,0.2344336063,
423.0299988,158.7644043,423.0299988,132.0567169,423.0299988,60.47457504,423.0299988,22.13031769,423.0299988,7.767349243,423.0299988,3.798498869,423.0299988,1.587301612,423.0299988,1.596169233,423.0299988,0.5095659494,423.0299988,0.2768932581,
423.9299927,170.5508118,423.9299927,144.7362823,423.9299927,66.91035461,423.9299927,24.83080673,423.9299927,9.065772057,423.9299927,4.243826866,423.9299927,2.091751814,423.9299927,1.161721349,423.9299927,0.6140184999,423.9299927,-0.1518449187,
425,192.7399139,425,161.2791443,425,73.56983948,425,26.41973114,425,10.39500999,425,5.016489506,425,2.49094224,425,1.392423272,425,1.077031136,425,-0.1406601667,
426.0599976,212.044754,426.0599976,178.0798035,426.0599976,82.64575958,426.0599976,29.90621185,426.0599976,11.18485165,426.0599976,5.57037878,426.0599976,2.439354897,426.0599976,2.116252899,426.0599976,1.00257802,426.0599976,0.1410238296,
426.9599915,224.363205,426.9599915,192.1584015,426.9599915,88.50991058,426.9599915,32.62112045,426.9599915,12.01779747,426.9599915,5.754445553,426.9599915,2.593793392,426.9599915,2.230448008,426.9599915,1.027598381,426.9599915,0.1480238885,
428.0299988,244.3101501,428.0299988,208.5969238,428.0299988,95.65409851,428.0299988,35.74800873,428.0299988,13.17649269,428.0299988,6.369132996,428.0299988,3.15084672,428.0299988,2.56957221,428.0299988,1.18511498,428.0299988,0.08984725922,
428.9299927,263.6410828,428.9299927,223.5830536,428.9299927,103.3099289,428.9299927,38.57849503,428.9299927,14.2966795,428.9299927,7.320576191,428.9299927,3.552397966,428.9299927,2.162525892,428.9299927,1.082403898,428.9299927,-0.2359380871,
430,286.0623779,430,241.7475281,430,115.0217743,430,42.81030655,430,15.73410606,430,7.834563255,430,3.770288229,430,2.218969822,430,0.9629737139,430,0.1887593865,
431.0700073,312.8954773,431.0700073,261.3112488,431.0700073,122.4303894,431.0700073,46.98672104,431.0700073,17.56514168,431.0700073,8.231368065,431.0700073,3.911525011,431.0700073,2.854611635,431.0700073,0.9460737705,431.0700073,0.2929830551,
432,329.3616028,432,280.9784851,432,131.2210693,432,49.10093689,432,18.86015129,432,8.581427574,432,4.162134171,432,2.883367777,432,1.289554596,432,0,
433.0700073,351.1496277,433.0700073,299.5124207,433.0700073,141.0944977,433.0700073,54.48065186,433.0700073,20.36070251,433.0700073,9.366909981,433.0700073,4.325850487,433.0700073,3.427172661,433.0700073,1.359289289,433.0700073,0,
434,371.0175781,434,317.6325989,434,150.0108795,434,57.65717316,434,20.09790039,434,10.50217819,434,4.655537128,434,2.932824373,434,1.360676527,434,0.386174947,
435.0700073,402.4627991,435.0700073,338.7579041,435.0700073,163.6264954,435.0700073,61.37056732,435.0700073,21.93379211,435.0700073,10.50311756,435.0700073,5.145797729,435.0700073,3.267058611,435.0700073,1.339008212,435.0700073,0.1018641144,
436,419.632782,436,357.9365845,436,172.0876007,436,65.18592072,436,23.82624054,436,10.89605045,436,5.209397316,436,3.282803774,436,1.428503394,436,0.5472092032,
437.0700073,447.9489746,437.0700073,376.9053345,437.0700073,181.4302368,437.0700073,69.76429749,437.0700073,25.002285,437.0700073,12.7427187,437.0700073,5.124106884,437.0700073,3.095975161,437.0700073,1.454581976,437.0700073,0.09967605025,
438,467.9479065,438,390.4848938,438,189.2508392,438,73.39032745,438,26.42341805,438,12.81586838,438,6.247795582,438,3.823716879,438,1.911858439,438,0,
439.0700073,489.805603,439.0700073,414.065979,439.0700073,203.2090149,439.0700073,77.64342499,439.0700073,29.7171154,439.0700073,13.59407425,439.0700073,6.80240202,439.0700073,3.987427711,439.0700073,1.734020591,439.0700073,0.3513526917,
440,510.4321899,440,432.1441956,440,209.7654114,440,81.39433289,440,29.86308861,440,13.92968845,440,6.468615055,440,4.291638851,440,1.823378682,440,0.349545598,
441.0599976,528.9703979,441.0599976,456.4338684,441.0599976,222.3144379,441.0599976,87.34127045,441.0599976,32.27762604,441.0599976,15.07768726,441.0599976,7.908977509,441.0599976,4.004052162,441.0599976,1.572945356,441.0599976,0.1488981545,
441.9599915,559.8528442,441.9599915,468.7745972,441.9599915,232.9405365,441.9599915,88.90759277,441.9599915,32.58635712,441.9599915,16.14704514,441.9599915,7.780526161,441.9599915,4.200887203,441.9599915,1.875431895,441.9599915,0.100160256,
443.0299988,582.1027222,443.0299988,489.3323059,443.0299988,245.2499695,443.0299988,93.80712128,443.0299988,34.19811249,443.0299988,16.41964531,443.0299988,7.809231758,443.0299988,4.407765388,443.0299988,2.135507822,443.0299988,0.4491017759,
443.9299927,604.2442627,443.9299927,515.5161133,443.9299927,253.1639862,443.9299927,98.30690765,443.9299927,37.5178299,443.9299927,18.13639259,443.9299927,8.117756844,443.9299927,4.317873001,443.9299927,2.145708561,443.9299927,0.3546997607,
445,628.6402588,445,528.2084351,445,268.1022949,445,103.9743423,445,36.85272598,445,18.02594948,445,8.712852478,445,4.601227283,445,2.026831388,445,0.8032934666,
446.0599976,654.2124634,446.0599976,561.2391357,446.0599976,276.3913879,446.0599976,109.5940475,446.0599976,39.43520355,446.0599976,18.34777832,446.0599976,9.060022354,446.0599976,4.983544827,446.0599976,2.382398367,446.0599976,0.5105948448,
446.9599915,669.9096069,446.9599915,580.6790161,446.9599915,282.6755676,446.9599915,113.3586578,446.9599915,39.70083237,446.9599915,19.65317917,446.9599915,9.171012878,446.9599915,4.372766495,446.9599915,2.397630692,446.9599915,0.2599292994,
448.0299988,701.9642334,448.0299988,593.8793335,448.0299988,295.0214539,448.0299988,119.2677078,448.0299988,42.34556961,448.0299988,20.28801727,448.0299988,9.782912254,448.0299988,4.897488594,448.0299988,2.497062206,448.0299988,0.4821135998,
448.9299927,718.446167,448.9299927,614.1004639,448.9299927,304.9548645,448.9299927,119.9238815,448.9299927,43.26526642,448.9299927,21.57512856,448.9299927,10.01825714,448.9299927,5.072051525,448.9299927,2.365072727,448.9299927,0.5570184588,
450,746.432251,450,637.0328369,450,311.6990662,450,125.7761307,450,45.56052017,450,21.30848122,450,10.42486286,450,5.261162281,450,2.529470682,450,0.5231369138,
451.0599976,764.8858643,451.0599976,646.4067993,451.0599976,325.5507507,451.0599976,129.1544189,451.0599976,48.15616226,451.0599976,22.13409615,451.0599976,9.89960289,451.0599976,5.683801174,451.0599976,3.022076607,451.0599976,0.7329944968,
451.9599915,775.8996582,451.9599915,669.0304565,451.9599915,333.0774231,451.9599915,132.6901093,451.9599915,48.88319397,451.9599915,23.20300293,451.9599915,10.9720068,451.9599915,5.282124519,451.9599915,2.756063461,451.9599915,1.04197669,
453.0299988,797.4501953,453.0299988,689.980896,453.0299988,343.7846069,453.0299988,134.287262,453.0299988,49.23321533,453.0299988,24.41911316,453.0299988,10.93096924,453.0299988,5.54564333,453.0299988,3.005914927,453.0299988,0.6851326227,
453.9299927,810.6889648,453.9299927,697.0990601,453.9299927,346.7731628,453.9299927,138.6812897,453.9299927,49.33237839,453.9299927,24.25390816,453.9299927,11.35741615,453.9299927,5.487892628,453.9299927,2.911914587,453.9299927,0.5856801271,
455,831.8995972,455,714.069519,455,354.7799072,455,142.8237762,455,52.01057434,455,24.90803528,455,12.31232548,455,5.400270462,455,2.801382065,455,0.8665511012,
456.0599976,846.7553101,456.0599976,721.9454346,456.0599976,365.0368042,456.0599976,147.016922,456.0599976,51.59395981,456.0599976,25.39933014,456.0599976,12.33829021,456.0599976,5.640265465,456.0599976,3.085698128,456.0599976,1.278184056,
456.9599915,860.9683228,456.9599915,739.1420288,456.9599915,374.0202637,456.9599915,148.1038818,456.9599915,51.99074173,456.9599915,26.73971939,456.9599915,13.10306549,456.9599915,5.602657318,456.9599915,3.514270782,456.9599915,1.002858162,
458.0299988,880.4549561,458.0299988,753.0044556,458.0299988,372.4921875,458.0299988,150.9059143,458.0299988,53.53360367,458.0299988,26.76778984,458.0299988,12.58037472,458.0299988,5.733781815,458.0299988,3.507062912,458.0299988,1.075952411,
458.9299927,887.3807983,458.9299927,762.5147705,458.9299927,382.8826904,458.9299927,154.2330627,458.9299927,56.51512527,458.9299927,26.83986473,458.9299927,12.75917053,458.9299927,5.838078022,458.9299927,3.322103739,458.9299927,1.051419377,
460,906.7620239,460,773.133728,460,388.9059448,460,155.9245148,460,55.34769058,460,27.47374344,460,12.9469223,460,6.720764637,460,3.782854319,460,1.154444695,
461.0599976,912.6307373,461.0599976,778.730835,461.0599976,391.2162781,461.0599976,159.7044373,461.0599976,56.93358612,461.0599976,28.72812653,461.0599976,14.21957684,461.0599976,6.55817318,461.0599976,3.992114305,461.0599976,1.194457769,
461.9599915,923.2565308,461.9599915,792.0670776,461.9599915,400.1151428,461.9599915,161.9156799,461.9599915,56.69017029,461.9599915,28.91532898,461.9599915,13.45312595,461.9599915,6.428501129,461.9599915,3.893512487,461.9599915,0.9465922713,
463.0299988,929.5453491,463.0299988,793.5814819,463.0299988,399.7756042,463.0299988,163.3405914,463.0299988,58.15254974,463.0299988,29.3412056,463.0299988,13.15851974,463.0299988,6.646372318,463.0299988,4.196815968,463.0299988,1.759014964,
463.9299927,935.2208862,463.9299927,804.5861816,463.9299927,411.2324219,463.9299927,164.019989,463.9299927,58.56562805,463.9299927,28.8944149,463.9299927,13.88952351,463.9299927,6.619317055,463.9299927,3.838680744,463.9299927,1.386275887,
465,938.3577271,465,800.4137573,465,412.5386658,465,167.5333862,465,59.23997498,465,29.31293678,465,13.84243774,465,6.836720467,465,4.472228527,465,1.489425063,
466.0599976,932.9603882,466.0599976,804.2880249,466.0599976,410.3414307,466.0599976,165.1939545,466.0599976,59.7695961,466.0599976,29.79115486,466.0599976,14.3441658,466.0599976,6.594464779,466.0599976,4.598978996,466.0599976,1.212768078,
466.9599915,954.7525024,466.9599915,808.9528198,466.9599915,409.6885376,466.9599915,167.3345795,466.9599915,60.91483307,466.9599915,30.10507202,466.9599915,13.48095989,466.9599915,7.243596077,466.9599915,4.617826462,466.9599915,1.322688937,
468.0299988,952.071228,468.0299988,810.0911255,468.0299988,412.8776245,468.0299988,166.9225311,468.0299988,61.45126724,468.0299988,30.33750534,468.0299988,14.13905716,468.0299988,7.216048241,468.0299988,5.054486275,468.0299988,1.57109189,
468.9299927,943.9268188,468.9299927,816.3661499,468.9299927,413.5842896,468.9299927,167.4226379,468.9299927,62.50885773,468.9299927,30.4706707,468.9299927,14.99783707,468.9299927,6.907944202,468.9299927,4.917572021,468.9299927,1.864957929,
470,956.0410156,470,818.0990601,470,418.2063293,470,171.8937531,470,60.99613571,470,30.2664032,470,13.92757702,470,7.189731598,470,5.411934853,470,1.667937517,
471.0599976,950.3034058,471.0599976,817.4686279,471.0599976,414.6703186,471.0599976,169.9706726,471.0599976,61.27882385,471.0599976,29.99954605,471.0599976,14.29346848,471.0599976,7.620619297,471.0599976,5.875153065,471.0599976,1.39539516,
471.9599915,950.9603882,471.9599915,822.1066284,471.9599915,418.8136597,471.9599915,168.6095734,471.9599915,61.58397675,471.9599915,30.26159859,471.9599915,14.58085823,471.9599915,7.633587837,471.9599915,6.124070644,471.9599915,1.535946012,
473.0299988,950.9213257,473.0299988,824.5299072,473.0299988,417.9458618,473.0299988,167.8590088,473.0299988,59.42594528,473.0299988,30.24279594,473.0299988,14.91821384,473.0299988,7.604747295,473.0299988,6.309304714,473.0299988,1.767652035,
473.9299927,944.0332642,473.9299927,816.2709351,473.9299927,417.0992432,473.9299927,168.8852539,473.9299927,60.58203506,473.9299927,30.67043877,473.9299927,14.84204197,473.9299927,7.332232952,473.9299927,6.868805885,473.9299927,1.624255538,
475,941.8317261,475,803.1869507,475,410.7569885,475,169.6010284,475,60.76729202,475,30.11174965,475,14.67268658,475,7.576461792,475,6.726897717,475,1.79122293,
476.0599976,936.458252,476.0599976,797.215332,476.0599976,406.6088257,476.0599976,171.2812195,476.0599976,60.72948456,476.0599976,31.61222458,476.0599976,15.2874403,476.0599976,7.330600739,476.0599976,6.72081995,476.0599976,1.973525882,
476.9599915,933.9744873,476.9599915,796.7658081,476.9599915,410.4331055,476.9599915,167.8900452,476.9599915,59.820858,476.9599915,30.70973587,476.9599915,14.7003746,476.9599915,7.436362267,476.9599915,6.943158627,476.9599915,1.753331304,
478.0299988,923.1488037,478.0299988,787.4138184,478.0299988,404.1047363,478.0299988,170.2341461,478.0299988,59.85615921,478.0299988,30.38447571,478.0299988,15.40116405,478.0299988,7.572834492,478.0299988,7.049633026,478.0299988,1.837203383,
478.9299927,911.4621582,478.9299927,786.9975586,478.9299927,403.2735596,478.9299927,165.0335083,478.9299927,59.50859833,478.9299927,31.39102554,478.9299927,14.21960831,478.9299927,7.06371212,478.9299927,7.15165329,478.9299927,1.708900928,
480,905.9188843,480,784.93927,480,401.9946899,480,164.8611755,480,60.14516068,480,29.79286957,480,15.12367439,480,6.853003025,480,6.773399353,480,2.032721996,
481.0599976,901.8510132,481.0599976,781.5615845,481.0599976,398.2343445,481.0599976,163.6966553,481.0599976,59.36346817,481.0599976,31.20363617,481.0599976,14.96070862,481.0599976,7.384707928,481.0599976,6.698611259,481.0599976,1.953220487,
481.9599915,896.5934448,481.9599915,766.0001221,481.9599915,396.4214478,481.9599915,162.9581146,481.9599915,58.86572266,481.9599915,29.46716881,481.9599915,14.7017107,481.9599915,7.745352745,481.9599915,6.933279991,481.9599915,2.837018013,
483.0299988,889.256958,483.0299988,759.9268799,483.0299988,392.1705933,483.0299988,160.9048615,483.0299988,58.5348587,483.0299988,30.09259415,483.0299988,14.25132465,483.0299988,7.625584126,483.0299988,6.578291893,483.0299988,2.24429369,
483.9299927,882.0942383,483.9299927,757.4696655,483.9299927,384.7969971,483.9299927,160.0306396,483.9299927,56.74414063,483.9299927,29.61872673,483.9299927,14.71734428,483.9299927,7.02641964,483.9299927,7.088487148,483.9299927,2.188852072,
485,861.9224854,485,752.4711914,485,383.5653076,485,156.4367371,485,56.57943344,485,28.8730793,485,13.89147854,485,7.733373642,485,6.55548048,485,2.330424547,
486.0599976,855.2699585,486.0599976,746.385437,486.0599976,377.690094,486.0599976,158.2171783,486.0599976,57.46960449,486.0599976,28.61029053,486.0599976,14.15831566,486.0599976,7.523809433,486.0599976,6.582085609,486.0599976,2.162216425,
486.9599915,847.8945923,486.9599915,727.690979,486.9599915,374.0561829,486.9599915,154.5585938,486.9599915,56.24826813,486.9599915,28.66404343,486.9599915,14.61531448,486.9599915,7.432399273,486.9599915,7.355481625,486.9599915,2.629981756,
488.0299988,842.4667358,488.0299988,720.006897,488.0299988,368.9798584,488.0299988,154.1653748,488.0299988,55.65354538,488.0299988,28.25967789,488.0299988,14.34733295,488.0299988,7.560337543,488.0299988,6.609511852,488.0299988,2.434447289,
488.9299927,830.8442383,488.9299927,710.8978882,488.9299927,362.2555847,488.9299927,150.9442596,488.9299927,55.5763855,488.9299927,27.85112953,488.9299927,14.70184135,488.9299927,7.518797398,488.9299927,6.487396717,488.9299927,2.384818316,
490,816.1378784,490,696.4293823,490,359.8020325,490,151.9513397,490,53.88243103,490,28.41613388,490,13.79245281,490,7.257794857,490,6.845267296,490,2.77609539,
491.0599976,803.3579712,491.0599976,692.3005981,491.0599976,358.6331787,491.0599976,147.3260651,491.0599976,53.801548,491.0599976,27.72779846,491.0599976,14.23861599,491.0599976,7.156147003,491.0599976,6.608253002,491.0599976,2.713912725,
491.9599915,790.109375,491.9599915,680.8303833,491.9599915,354.6754456,491.9599915,146.8993988,491.9599915,53.98604965,491.9599915,27.21769333,491.9599915,14.26553059,491.9599915,7.547348976,491.9599915,6.544377804,491.9599915,2.956830263,
493.0299988,775.8017578,493.0299988,673.206543,493.0299988,348.0708313,493.0299988,144.0316467,493.0299988,51.79732513,493.0299988,26.0731163,493.0299988,13.86214924,493.0299988,7.584394932,493.0299988,6.587870598,493.0299988,2.750626326,
493.9299927,769.7008057,493.9299927,664.5043335,493.9299927,343.6329041,493.9299927,144.7671356,493.9299927,50.12269211,493.9299927,25.87247276,493.9299927,13.79978752,493.9299927,7.622701168,493.9299927,6.327321053,493.9299927,2.947823524,
495,752.0327148,495,654.5891724,495,339.9375305,495,141.4519653,495,50.85224533,495,26.7212429,495,13.3628273,495,7.458631992,495,6.501885891,495,2.97866106,
496.0599976,743.3616943,496.0599976,634.6040039,496.0599976,335.097168,496.0599976,140.8752747,496.0599976,50.32030487,496.0599976,26.82081985,496.0599976,13.90912151,496.0599976,7.202052116,496.0599976,6.479690552,496.0599976,2.739301205,
496.9599915,737.2958984,496.9599915,626.5214844,496.9599915,331.6678467,496.9599915,136.8878021,496.9599915,49.37202072,496.9599915,25.9254055,496.9599915,12.99192142,496.9599915,7.391973019,496.9599915,6.427097321,496.9599915,3.116219759,
498.0299988,722.637146,498.0299988,616.3482666,498.0299988,323.0872803,498.0299988,133.9479065,498.0299988,49.53933716,498.0299988,24.77377319,498.0299988,13.81548405,498.0299988,7.241203308,498.0299988,6.035531998,498.0299988,2.610580206,
498.9299927,703.5718994,498.9299927,610.2525635,498.9299927,314.123291,498.9299927,134.0811768,498.9299927,48.57667542,498.9299927,25.46328354,498.9299927,13.40961075,498.9299927,7.518797398,498.9299927,6.121643066,498.9299927,3.432323456,
500,688.008728,500,597.3973389,500,309.7159119,500,130.7086639,500,47.90248108,500,24.74950409,500,12.77060318,500,7.203763962,500,7.037899971,500,3.124199867,
501.0400085,668.8574829,501.0400085,584.9013062,501.0400085,306.7546692,501.0400085,127.1155319,501.0400085,47.51935196,501.0400085,25.46819878,501.0400085,13.09648514,501.0400085,6.857886314,501.0400085,6.433779716,501.0400085,3.459352493,
501.9400024,661.8676758,501.9400024,575.3132935,501.9400024,303.5610352,501.9400024,125.9441071,501.9400024,45.877388,501.9400024,24.48290443,501.9400024,13.0055809,501.9400024,7.190821171,501.9400024,6.501826763,501.9400024,3.238627911,
502.980011,648.0349731,502.980011,558.9284668,502.980011,295.4030762,502.980011,124.6191483,502.980011,44.79835892,502.980011,22.82708168,502.980011,12.42884254,502.980011,7.702807903,502.980011,5.819737434,502.980011,3.064194918,
504.019989,646.6530762,504.019989,557.3972168,504.019989,286.411499,504.019989,121.0199585,504.019989,45.30744171,504.019989,22.8314743,504.019989,12.05404854,504.019989,7.074655056,504.019989,5.603784561,504.019989,3.382471561,
505.0700073,630.7561646,505.0700073,543.5751343,505.0700073,281.5443726,505.0700073,120.0247955,505.0700073,43.5500412,505.0700073,22.37854767,505.0700073,12.35834312,505.0700073,7.348869801,505.0700073,6.008420944,505.0700073,3.402683258,
505.9700012,615.7597656,505.9700012,527.6469116,505.9700012,277.4423218,505.9700012,118.3531189,505.9700012,42.66741943,505.9700012,22.21911049,505.9700012,11.14701843,505.9700012,7.344059467,505.9700012,5.391786575,505.9700012,3.286891699,
507.0100098,605.9163208,507.0100098,519.8601074,507.0100098,274.0282593,507.0100098,113.4206696,507.0100098,43.07706451,507.0100098,22.00104904,507.0100098,12.36553764,507.0100098,6.870524406,507.0100098,6.256062031,507.0100098,3.132983208,
508.0499878,595.0256348,508.0499878,506.6450195,508.0499878,269.151947,508.0499878,113.1000061,508.0499878,41.71118164,508.0499878,21.9118824,508.0499878,11.96581173,508.0499878,6.874298573,508.0499878,5.659640789,508.0499878,3.168600082,
508.9500122,577.1051025,508.9500122,495.5429077,508.9500122,261.8054199,508.9500122,109.5655365,508.9500122,39.61156464,508.9500122,21.23078537,508.9500122,11.96698761,508.9500122,6.994818687,508.9500122,5.445447445,508.9500122,3.400522232,
510,568.4556885,510,491.8713379,510,254.7010803,510,109.1631546,510,39.21203995,510,21.04081154,510,11.71213531,510,6.874695301,510,5.411563396,510,3.727910757,
511.0400085,562.0540771,511.0400085,471.2210999,511.0400085,250.14711,511.0400085,105.0063782,511.0400085,38.23023987,511.0400085,20.37963867,511.0400085,11.27175903,511.0400085,6.871794701,511.0400085,5.697165966,511.0400085,3.563474417,
511.9400024,552.980835,511.9400024,463.079834,511.9400024,245.4900208,511.9400024,105.3071442,511.9400024,38.41186142,511.9400024,19.97722244,511.9400024,11.55027008,511.9400024,6.092767239,511.9400024,5.094974518,511.9400024,3.473213434,
512.9799805,539.7064819,512.9799805,458.6748352,512.9799805,240.5450287,512.9799805,103.3235245,512.9799805,38.3763504,512.9799805,20.17547798,512.9799805,11.13992119,512.9799805,6.495057106,512.9799805,4.813359737,512.9799805,3.634042025,
514.0200195,522.8138428,514.0200195,440.4910278,514.0200195,235.3651733,514.0200195,100.6421967,514.0200195,36.02017593,514.0200195,19.58294678,514.0200195,11.26299095,514.0200195,6.637282848,514.0200195,5.124734402,514.0200195,3.302281857,
515.0700073,511.4419556,515.0700073,433.181427,515.0700073,226.6358337,515.0700073,96.77568054,515.0700073,36.53730011,515.0700073,19.69219017,515.0700073,10.55921268,515.0700073,6.284288883,515.0700073,5.168083668,515.0700073,3.556291819,
515.9699707,503.0747681,515.9699707,427.9197083,515.9699707,224.6677856,515.9699707,95.39550781,515.9699707,35.20499039,515.9699707,18.99123955,515.9699707,10.96573734,515.9699707,6.206626892,515.9699707,5.229972363,515.9699707,3.742477179,
517.0100098,487.7951355,517.0100098,412.5470276,517.0100098,217.3485565,517.0100098,92.57637787,517.0100098,34.83364105,517.0100098,18.59826851,517.0100098,11.08194828,517.0100098,6.594163895,517.0100098,4.565272808,517.0100098,3.345269442,
518.0499878,476.2269897,518.0499878,406.2189331,518.0499878,209.4201965,518.0499878,91.22029114,518.0499878,34.22228241,518.0499878,18.56251717,518.0499878,10.04737377,518.0499878,5.929052353,518.0499878,5.001786232,518.0499878,3.670924425,
518.9500122,465.391571,518.9500122,396.1148376,518.9500122,209.2530212,518.9500122,89.96935272,518.9500122,33.96353531,518.9500122,18.47437477,518.9500122,10.33170223,518.9500122,6.342904091,518.9500122,5.023888111,518.9500122,3.481119871,
520,456.5111084,520,390.8296814,520,203.8450623,520,87.77415466,520,32.71162033,520,18.17319107,520,10.37489986,520,6.476094246,520,5.358273506,520,3.695309401,
521.0599976,442.1351013,521.0599976,376.4232788,521.0599976,200.5159149,521.0599976,85.02307892,521.0599976,31.99880219,521.0599976,17.48822403,521.0599976,9.871528625,521.0599976,6.447388172,521.0599976,4.769016266,521.0599976,3.670634985,
521.960022,434.591095,521.960022,368.0248413,521.960022,193.4373474,521.960022,81.14221191,521.960022,32.72207642,521.960022,17.13492584,521.960022,10.04633045,521.960022,5.775254726,521.960022,4.629403591,521.960022,3.441898584,
523.0300293,421.8891907,523.0300293,359.5844116,523.0300293,187.2914276,523.0300293,81.43881226,523.0300293,30.03731346,523.0300293,16.9876461,523.0300293,10.00098038,523.0300293,5.669844151,523.0300293,5.301556587,523.0300293,3.823350191,
523.9299927,413.6008301,523.9299927,347.8397217,523.9299927,184.3629303,523.9299927,78.99652863,523.9299927,29.88000298,523.9299927,15.8759985,523.9299927,9.190458298,523.9299927,6.13314867,523.9299927,4.845248699,523.9299927,3.465443134,
525,400.0517883,525,344.555603,525,177.3819122,525,77.97232819,525,29.26227379,525,16.38871574,525,9.207110405,525,6.108794689,525,4.821552753,525,3.703886747,
526.0599976,387.6640015,526.0599976,335.4336548,526.0599976,180.3618164,526.0599976,75.4345932,526.0599976,28.44909668,526.0599976,15.24906826,526.0599976,9.84549427,526.0599976,6.17045927,526.0599976,4.555473804,526.0599976,3.974793911,
526.960022,380.5216064,526.960022,329.2399597,526.960022,173.1523743,526.960022,73.94988251,526.960022,28.7780056,526.960022,15.39369488,526.960022,8.983042717,526.960022,6.278594494,526.960022,4.563358784,526.960022,3.716017962,
528.0300293,369.5554199,528.0300293,322.710083,528.0300293,167.1978302,528.0300293,72.21215057,528.0300293,27.03205681,528.0300293,15.32352257,528.0300293,8.552856445,528.0300293,5.866951466,528.0300293,4.331561089,528.0300293,3.370051622,
528.9299927,362.2130432,528.9299927,309.5090332,528.9299927,164.1648865,528.9299927,69.58572388,528.9299927,27.47328377,528.9299927,15.22991371,528.9299927,8.695652008,528.9299927,5.209637642,528.9299927,4.470206738,528.9299927,4.123913765,
530,348.5532837,530,304.1792297,530,159.6665192,530,68.6092453,530,27.81647873,530,14.63818836,530,8.661650658,530,6.263670444,530,4.562134266,530,3.557827234,
531.039978,342.7820129,531.039978,291.7935791,531.039978,153.5587463,531.039978,67.48754883,531.039978,25.16482544,531.039978,13.81202412,531.039978,8.032517433,531.039978,5.646718025,531.039978,4.322906494,531.039978,3.329742432,
531.9400024,332.1928101,531.9400024,286.7441711,531.9400024,151.7515259,531.9400024,65.78652191,531.9400024,26.18160439,531.9400024,13.63929558,531.9400024,8.647609711,531.9400024,5.455962181,531.9400024,4.594921589,531.9400024,3.722262144,
532.9799805,324.694519,532.9799805,277.0715027,532.9799805,147.2779083,532.9799805,63.9553833,532.9799805,24.00302315,532.9799805,13.79277039,532.9799805,8.314290047,532.9799805,5.153337002,532.9799805,4.425649166,532.9799805,3.408248901,
534.0200195,315.0211487,534.0200195,271.9952393,534.0200195,142.5456085,534.0200195,62.15843964,534.0200195,23.49734497,534.0200195,12.94231033,534.0200195,8.058678627,534.0200195,5.261395454,534.0200195,4.211534023,534.0200195,3.565824986,
535.0700073,304.2913513,535.0700073,262.3236084,535.0700073,141.8296204,535.0700073,59.89490509,535.0700073,23.58312988,535.0700073,13.46817017,535.0700073,8.195940018,535.0700073,5.270223141,535.0700073,4.078857899,535.0700073,3.524648666,
535.9699707,294.394165,535.9699707,256.5765381,535.9699707,138.3682556,535.9699707,58.21356964,535.9699707,22.4011364,535.9699707,12.4911623,535.9699707,7.265647411,535.9699707,4.98484993,535.9699707,4.522128105,535.9699707,3.469676971,
537.0100098,292.9720459,537.0100098,250.5161133,537.0100098,132.7407074,537.0100098,57.42415237,537.0100098,21.9170208,537.0100098,12.35196209,537.0100098,7.871788979,537.0100098,4.962040424,537.0100098,4.330296993,537.0100098,3.456838131,
538.0499878,283.6030579,538.0499878,242.1366577,538.0499878,128.245575,538.0499878,56.00328064,538.0499878,22.16589546,538.0499878,12.08821583,538.0499878,6.863352299,538.0499878,5.569125652,538.0499878,4.147353172,538.0499878,3.562111139,
538.9500122,279.5431519,538.9500122,233.3378601,538.9500122,125.9918823,538.9500122,55.1516571,538.9500122,21.04108047,538.9500122,11.33549213,538.9500122,7.42741394,538.9500122,4.786324501,538.9500122,4.192977905,538.9500122,3.400369167,
540,269.546875,540,229.7693481,540,121.7078247,540,52.35233688,540,20.91793251,540,12.53361511,540,7.259266376,540,5.114842892,540,4.590163708,540,3.018716097,
541.039978,255.8685608,541.039978,223.7187958,541.039978,117.107811,541.039978,52.05479813,541.039978,19.89074135,541.039978,11.30533886,541.039978,7.44370079,541.039978,4.700582504,541.039978,4.329004288,541.039978,3.25998354,
541.9400024,252.8139954,541.9400024,217.6581268,541.9400024,117.2808609,541.9400024,50.82546616,541.9400024,19.54268074,541.9400024,11.48947239,541.9400024,7.498918533,541.9400024,4.797467709,541.9400024,3.910671949,541.9400024,3.488098145,
542.9799805,248.769928,542.9799805,212.4056854,542.9799805,113.8526154,542.9799805,49.04932404,542.9799805,19.49152565,542.9799805,10.87415028,542.9799805,7.070994377,542.9799805,4.720297337,542.9799805,4.234477997,542.9799805,3.202370644,
544.0200195,238.7651215,544.0200195,209.6139526,544.0200195,110.0909042,544.0200195,46.70342636,544.0200195,19.38900948,544.0200195,10.8205595,544.0200195,6.911569595,544.0200195,5.027486801,544.0200195,3.700555086,544.0200195,3.788955212,
545.0700073,233.2466125,545.0700073,200.0348206,545.0700073,105.4361343,545.0700073,46.3347168,545.0700073,17.70422363,545.0700073,9.862026215,545.0700073,6.151007175,545.0700073,4.469005585,545.0700073,4.566905022,545.0700073,3.385076523,
545.9699707,225.5338135,545.9699707,192.9113007,545.9699707,103.1212463,545.9699707,45.58011246,545.9699707,17.86213875,545.9699707,10.41921425,545.9699707,6.223025322,545.9699707,4.801617622,545.9699707,3.881755829,545.9699707,3.246753216,
547.0100098,221.5060577,547.0100098,189.6672211,547.0100098,101.1965179,547.0100098,44.0322876,547.0100098,17.28562546,547.0100098,9.791637421,547.0100098,6.584869385,547.0100098,5.048319817,547.0100098,3.985828161,547.0100098,3.524423122,
548.0499878,211.4748383,548.0499878,182.8418274,548.0499878,96.90406799,548.0499878,42.47640228,548.0499878,17.32184982,548.0499878,10.41666698,548.0499878,5.996929646,548.0499878,4.859688282,548.0499878,3.781847239,548.0499878,2.81273818,
548.9500122,207.7028961,548.9500122,175.8114014,548.9500122,94.0026474,548.9500122,42.25607681,548.9500122,17.06169891,548.9500122,9.583452225,548.9500122,6.59506321,548.9500122,4.581343174,548.9500122,3.671847582,548.9500122,3.283582211,
550,201.5762177,550,174.3569946,550,93.26841736,550,40.26815414,550,16.36707687,550,9.483122826,550,6.012317657,550,4.32164669,550,3.457382917,550,3.069249868,
551.0200195,196.9289398,551.0200195,166.5969086,551.0200195,89.54456329,551.0200195,38.59790802,551.0200195,15.86123753,551.0200195,9.432243347,551.0200195,6.369109631,551.0200195,4.27196455,551.0200195,3.917038918,551.0200195,3.313194275,
552.0499878,188.2258453,552.0499878,163.3800201,552.0499878,86.7677002,552.0499878,36.92951965,552.0499878,14.9457159,552.0499878,9.51363945,552.0499878,6.55314064,552.0499878,4.465393066,552.0499878,3.465104818,552.0499878,3.025570869,
552.9400024,183.292923,552.9400024,159.4074402,552.9400024,83.7359848,552.9400024,37.98035812,552.9400024,14.8091526,552.9400024,9.311074257,552.9400024,6.008825302,552.9400024,3.976826668,552.9400024,3.303799391,552.9400024,3.154272795,
553.9699707,178.0381775,553.9699707,152.5500793,553.9699707,82.27819061,553.9699707,35.27320099,553.9699707,14.79915428,553.9699707,8.632502556,553.9699707,5.798042774,553.9699707,4.377832413,553.9699707,3.35620904,553.9699707,3.063392401,
555,173.53125,555,147.4085388,555,81.39044189,555,35.63245392,555,14.51905632,555,8.88418293,555,5.662617683,555,4.049767971,555,3.138021469,555,3.451506376,
556.0200195,165.7068939,556.0200195,144.5227661,556.0200195,77.00524902,556.0200195,34.8398819,556.0200195,14.5680151,556.0200195,7.920611858,556.0200195,5.737316132,556.0200195,4.480015755,556.0200195,3.31901598,556.0200195,2.863825083,
557.0499878,164.2451019,557.0499878,140.5222473,557.0499878,74.52616882,557.0499878,33.65563202,557.0499878,13.51224995,557.0499878,8.166713715,557.0499878,5.145019054,557.0499878,4.065645218,557.0499878,3.573107719,557.0499878,3.42922473,
557.9400024,158.2704315,557.9400024,135.4995575,557.9400024,73.45726013,557.9400024,32.44782639,557.9400024,12.86560917,557.9400024,7.171314716,557.9400024,5.252820492,557.9400024,4.163981438,557.9400024,3.511588335,557.9400024,2.857823372,
558.9699707,153.8427734,558.9699707,132.9085541,558.9699707,70.04109192,558.9699707,30.67430687,558.9699707,12.84162045,558.9699707,7.513399601,558.9699707,4.903432369,558.9699707,4.143297672,558.9699707,3.660615683,558.9699707,2.993424177,
560,150.8724823,560,128.7918854,560,70.72083282,560,29.52497482,560,12.63395882,560,7.065319061,560,4.628536224,560,3.907204151,560,3.550887823,560,3.127857208,
561.039978,142.2182922,561.039978,124.9771957,561.039978,67.55036926,561.039978,29.36003113,561.039978,12.31221581,561.039978,7.154024601,561.039978,4.92971468,561.039978,3.547305584,561.039978,3.237293482,561.039978,3.152279377,
561.9400024,141.0222473,561.9400024,121.2932053,561.9400024,64.62164307,561.9400024,29.72985268,561.9400024,12.05216312,561.9400024,7.746252537,561.9400024,4.887681961,561.9400024,4.101635456,561.9400024,2.888782024,561.9400024,2.865876913,
562.9799805,136.2379303,562.9799805,116.4510193,562.9799805,63.01824188,562.9799805,27.88981819,562.9799805,11.70850563,562.9799805,7.129210949,562.9799805,4.621248245,562.9799805,3.739640236,562.9799805,2.980098963,562.9799805,2.918429852,
564.0200195,130.2430267,564.0200195,112.1951218,564.0200195,60.07322311,564.0200195,28.14034653,564.0200195,11.20685577,564.0200195,7.106124401,564.0200195,4.673559189,564.0200195,3.137294054,564.0200195,3.102637053,564.0200195,2.921036243,
565.0700073,129.0482941,565.0700073,108.9600754,565.0700073,59.18601227,565.0700073,27.32723045,565.0700073,11.51789379,565.0700073,6.665112972,565.0700073,4.160015583,565.0700073,3.393607855,565.0700073,2.851243734,565.0700073,2.760327339,
565.9699707,124.4255905,565.9699707,106.3333969,565.9699707,57.8024025,565.9699707,25.93375015,565.9699707,10.42404556,565.9699707,6.12334156,565.9699707,4.32417345,565.9699707,3.196394682,565.9699707,2.716317654,565.9699707,2.887152195,
567.0100098,118.818924,567.0100098,103.0531082,567.0100098,55.97964478,567.0100098,25.33729744,567.0100098,10.14552593,567.0100098,6.447091579,567.0100098,4.034440517,567.0100098,3.458646536,567.0100098,3.215742826,567.0100098,3.161768436,
568.0499878,115.6173172,568.0499878,102.0714493,568.0499878,55.36268234,568.0499878,24.35920715,568.0499878,10.02717686,568.0499878,6.509094715,568.0499878,4.367659569,568.0499878,3.593562841,568.0499878,2.940150499,568.0499878,3.097345114,
568.9500122,112.4659424,568.9500122,100.469986,568.9500122,52.39657211,568.9500122,23.33019638,568.9500122,10.29127121,568.9500122,6.260312557,568.9500122,4.111600399,568.9500122,3.358644962,568.9500122,2.753623247,568.9500122,2.614056587,
570,110.2092743,570,93.98298645,570,51.62922668,570,23.65415955,570,9.095377922,570,6.356625557,570,4.337753296,570,3.599054575,570,2.672179222,570,2.497252941,
571.0200195,105.2563324,571.0200195,92.12888336,571.0200195,48.8185463,571.0200195,22.26387596,571.0200195,9.30654335,571.0200195,5.571806908,571.0200195,4.456633568,571.0200195,3.426555872,571.0200195,3.014977455,571.0200195,2.345507622,
572.0499878,101.4115601,572.0499878,89.77937317,572.0499878,48.21283722,572.0499878,21.96353149,572.0499878,9.234585762,572.0499878,5.395938873,572.0499878,3.818823576,572.0499878,3.328724384,572.0499878,2.62414217,572.0499878,2.731440783,
572.9400024,100.6702805,572.9400024,87.99824524,572.9400024,46.86031342,572.9400024,21.25242615,572.9400024,8.641154289,572.9400024,5.394309998,572.9400024,3.845193386,572.9400024,2.819092035,572.9400024,2.458163977,572.9400024,2.792885542,
573.9699707,97.03860474,573.9699707,84.15029144,573.9699707,46.28507233,573.9699707,20.48517609,573.9699707,8.463356972,573.9699707,5.55448246,573.9699707,3.931345463,573.9699707,2.805979252,573.9699707,2.725060701,573.9699707,2.385382414,
575,94.3716507,575,81.17948151,575,44.52908707,575,20.66568375,575,8.532510757,575,5.106550217,575,3.929273129,575,3.096748352,575,2.677050352,575,2.738788128,
576.0200195,89.92029572,576.0200195,79.98545837,576.0200195,43.67332077,576.0200195,19.37947083,576.0200195,7.9195714,576.0200195,5.223058224,576.0200195,3.670491934,576.0200195,3.385779619,576.0200195,2.488428831,576.0200195,2.338424683,
577.0499878,88.02629089,577.0499878,75.69114685,577.0499878,41.21385193,577.0499878,19.11372757,577.0499878,8.313364983,577.0499878,5.364806652,577.0499878,3.545021772,577.0499878,3.252994299,577.0499878,2.824998617,577.0499878,2.091516495,
577.9400024,85.63116455,577.9400024,74.88656616,577.9400024,40.15165329,577.9400024,18.32401276,577.9400024,7.752309322,577.9400024,4.799155712,577.9400024,3.218061924,577.9400024,3.189156771,577.9400024,2.77777791,577.9400024,2.6027143,
578.9699707,83.72237396,578.9699707,70.91591644,578.9699707,38.85755157,578.9699707,17.54141808,578.9699707,8.008810043,578.9699707,5.388088226,578.9699707,3.697656631,578.9699707,2.735310078,578.9699707,2.725316763,578.9699707,2.076157093,
580,79.78676605,580,70.18183136,580,38.35542297,580,16.50618935,580,7.615644932,580,4.615011215,580,3.228256702,580,2.69031477,580,2.832446337,580,2.322880268,
581.039978,77.51556396,581.039978,66.73645782,581.039978,35.96995163,581.039978,16.54358864,581.039978,7.401355743,581.039978,4.728132248,581.039978,3.494495153,581.039978,2.886419535,581.039978,2.452608347,581.039978,2.389766216,
581.9400024,75.31911469,581.9400024,65.15730286,581.9400024,35.39690399,581.9400024,16.25393867,581.9400024,7.172033787,581.9400024,4.840905666,581.9400024,3.40086484,581.9400024,2.702567577,581.9400024,2.453385592,581.9400024,1.879606247,
582.9799805,72.90584564,582.9799805,62.82556915,582.9799805,33.77899551,582.9799805,16.11813545,582.9799805,7.279821396,582.9799805,4.373247147,582.9799805,3.532219648,582.9799805,2.112918377,582.9799805,1.824632525,582.9799805,2.104027033,
584.0200195,72.58028412,584.0200195,61.34552765,584.0200195,33.28476334,584.0200195,15.5067215,584.0200195,6.460246563,584.0200195,3.814277649,584.0200195,2.908385754,584.0200195,2.443347931,584.0200195,2.744963408,584.0200195,1.973240852,
585.0700073,69.10211945,585.0700073,60.3831749,585.0700073,32.95715332,585.0700073,14.80051517,585.0700073,6.676157475,585.0700073,4.140080929,585.0700073,3.11616087,585.0700073,2.299750566,585.0700073,2.461074829,585.0700073,2.046254873,
585.9699707,67.30896759,585.9699707,56.86680984,585.9699707,31.4331131,585.9699707,14.16392899,585.9699707,6.391742706,585.9699707,4.788282871,585.9699707,3.088952303,585.9699707,2.730341673,585.9699707,1.72193253,585.9699707,1.968007326,
587.0100098,64.09850311,587.0100098,57.30145645,587.0100098,30.35435677,587.0100098,14.07619286,587.0100098,6.299894333,587.0100098,4.137381077,587.0100098,2.697929859,587.0100098,3.025317192,587.0100098,2.382134199,587.0100098,1.943312168,
588.0499878,63.80117798,588.0499878,54.44060898,588.0499878,29.12484169,588.0499878,14.62778378,588.0499878,6.098137379,588.0499878,3.809160948,588.0499878,2.793296099,588.0499878,2.643976688,588.0499878,2.529921293,588.0499878,1.788735867,
588.9500122,62.10926819,588.9500122,50.76565933,588.9500122,28.22246361,588.9500122,13.29775238,588.9500122,6.04996109,588.9500122,3.648058176,588.9500122,2.928890228,588.9500122,2.185900927,588.9500122,2.669698954,588.9500122,1.827801824,
590,59.13437271,590,51.477211,590,28.25087929,590,13.00396252,590,5.584252357,590,3.851573467,590,2.784509897,590,2.268580198,590,2.239968777,590,2.024496555,
591.0200195,57.2446022,591.0200195,50.34604263,591.0200195,27.48196602,591.0200195,11.52478218,591.0200195,5.898244381,591.0200195,3.52532053,591.0200195,2.984650373,591.0200195,2.278468609,591.0200195,1.793308377,591.0200195,1.816396713,
592.0499878,54.27278137,592.0499878,48.74645615,592.0499878,25.3384552,592.0499878,12.16845703,592.0499878,5.549825668,592.0499878,3.419763088,592.0499878,3.033075094,592.0499878,2.26000309,592.0499878,2.111507893,592.0499878,1.84926033,
592.9400024,54.5866394,592.9400024,45.7401123,592.9400024,25.37750816,592.9400024,12.26713085,592.9400024,5.152384281,592.9400024,3.319789886,592.9400024,2.468648195,592.9400024,1.984631896,592.9400024,2.172375679,592.9400024,1.903460383,
593.9699707,51.10331726,593.9699707,45.14612579,593.9699707,24.70883751,593.9699707,11.34596062,593.9699707,5.211788177,593.9699707,3.606510878,593.9699707,2.723073006,593.9699707,2.144249678,593.9699707,1.925708294,593.9699707,1.849508405,
595,50.44868851,595,45.45238495,595,23.9412384,595,10.88667393,595,5.394249439,595,3.483477831,595,3.014209986,595,1.918373108,595,1.990675211,595,1.809782386,
596.0200195,49.13240433,596.0200195,42.56656647,596.0200195,23.86374474,596.0200195,11.12473297,596.0200195,5.080789566,596.0200195,3.469292164,596.0200195,2.670099735,596.0200195,2.2217834,596.0200195,1.584534883,596.0200195,1.626171708,
597.0499878,46.87937164,597.0499878,40.96170807,597.0499878,22.00763512,597.0499878,10.57854271,597.0499878,5.038152695,597.0499878,3.24705863,597.0499878,2.793166161,597.0499878,1.563603282,597.0499878,1.703150749,597.0499878,1.636897564,
597.9400024,46.64154434,597.9400024,39.12355804,597.9400024,21.71945763,597.9400024,10.00233746,597.9400024,4.765019417,597.9400024,3.718535423,597.9400024,2.74465251,597.9400024,2.05260396,597.9400024,1.824007869,597.9400024,1.469435811,
598.9699707,44.67183685,598.9699707,38.61354828,598.9699707,21.39741898,598.9699707,10.07474804,598.9699707,4.197957039,598.9699707,3.089702606,598.9699707,2.420018435,598.9699707,2.171874285,598.9699707,1.636031151,598.9699707,1.398950815,
600,42.56825638,600,38.71266556,600,20.78479767,600,9.555749893,600,4.466526031,600,2.858095646,600,2.143469572,600,2.14858675,600,1.858455896,600,1.547428608,
601.0100098,41.4439621,601.0100098,35.89131546,601.0100098,19.55319977,601.0100098,9.60064888,601.0100098,4.110421181,601.0100098,2.978764296,601.0100098,2.119256496,601.0100098,2.170909882,601.0100098,1.933301091,601.0100098,1.917637467,
602.0200195,39.64299774,602.0200195,35.14476395,602.0200195,19.09851265,602.0200195,8.889509201,602.0200195,4.097768307,602.0200195,2.841850996,602.0200195,2.029632568,602.0200195,1.70187211,602.0200195,1.953220487,602.0200195,1.478231907,
603.039978,39.46503067,603.039978,33.68249893,603.039978,18.53046989,603.039978,8.615633965,603.039978,4.062225819,603.039978,2.914788008,603.039978,2.61169672,603.039978,1.690869331,603.039978,1.61844039,603.039978,1.580261946,
604.0499878,36.76207352,604.0499878,33.40950775,604.0499878,17.88588715,604.0499878,8.700856209,604.0499878,4.107261181,604.0499878,2.539025784,604.0499878,2.230871439,604.0499878,1.564715624,604.0499878,1.352434397,604.0499878,1.506629109,
605.0700073,36.47180557,605.0700073,32.05306625,605.0700073,17.94050217,605.0700073,8.815348625,605.0700073,4.258106709,605.0700073,2.879702806,605.0700073,2.249234438,605.0700073,1.764186978,605.0700073,1.771740675,605.0700073,1.411167145,
605.9400024,34.81458282,605.9400024,31.07196045,605.9400024,17.50677872,605.9400024,7.926856995,605.9400024,3.635320187,605.9400024,2.469614029,605.9400024,2.330459118,605.9400024,1.739308357,605.9400024,1.687931299,605.9400024,1.214181662,
606.9500122,34.95076752,606.9500122,30.1516571,606.9500122,16.05093384,606.9500122,7.820314884,606.9500122,3.875412703,606.9500122,2.539773703,606.9500122,2.175632954,606.9500122,1.673640251,606.9500122,1.752848387,606.9500122,1.435132027,
607.9699707,33.9750824,607.9699707,28.12754822,607.9699707,17.10371208,607.9699707,7.668781757,607.9699707,3.634756088,607.9699707,2.273254633,607.9699707,2.028005838,607.9699707,1.673640251,607.9699707,1.207061291,607.9699707,1.018952489,
608.9799805,32.66059875,608.9799805,27.41267586,608.9799805,15.42789745,608.9799805,7.320435047,608.9799805,3.636363745,608.9799805,2.483201981,608.9799805,1.675763607,608.9799805,1.963864803,608.9799805,1.420872211,608.9799805,1.064638853,
610,30.91753769,610,26.68391418,610,14.82641125,610,6.91276741,610,3.239531994,610,1.724716187,610,1.977142453,610,1.517822146,610,1.475651741,610,1.440922141,
611.0200195,28.48145103,611.0200195,25.62060928,611.0200195,14.63371181,611.0200195,6.4956007,611.0200195,3.31434989,611.0200195,2.145608902,611.0200195,1.742816806,611.0200195,1.421429157,611.0200195,0.7741810679,611.0200195,1.841709852,
612.0499878,28.8817234,612.0499878,25.1996994,612.0499878,14.39366722,612.0499878,6.707946301,612.0499878,2.774773121,612.0499878,2.24579525,612.0499878,2.062822342,612.0499878,1.539454699,612.0499878,1.261505365,612.0499878,1.536098361,
612.9400024,28.41417503,612.9400024,25.09293747,612.9400024,13.72839069,612.9400024,6.727060795,612.9400024,2.934600115,612.9400024,2.174996614,612.9400024,1.840603828,612.9400024,1.48979497,612.9400024,1.120257139,612.9400024,1.557859898,
613.9699707,26.7857151,613.9699707,23.33132362,613.9699707,13.83341503,613.9699707,6.253232479,613.9699707,2.998155117,613.9699707,2.221125364,613.9699707,2.21198988,613.9699707,1.588325858,613.9699707,1.597842932,613.9699707,1.406540394,
615,26.31814957,615,22.92136765,615,12.39174557,615,6.047074318,615,2.950260401,615,2.190789223,615,1.66420114,615,1.466203928,615,1.4910537,615,1.115788341,
616.0200195,25.95725632,616.0200195,22.85352898,616.0200195,12.31650257,616.0200195,5.469506264,616.0200195,2.916411877,616.0200195,2.046291828,616.0200195,1.473951697,616.0200195,1.620427251,616.0200195,1.211416483,616.0200195,1.446095586,
617.0499878,24.03080368,617.0499878,21.95778465,617.0499878,11.79504299,617.0499878,5.249343872,617.0499878,2.803964376,617.0499878,2.219345093,617.0499878,1.311252475,617.0499878,1.232159376,617.0499878,1.238901496,617.0499878,1.302735806,
617.9400024,23.32049561,617.9400024,20.41375542,617.9400024,11.61915493,617.9400024,5.280127048,617.9400024,2.701485872,617.9400024,1.86585021,617.9400024,1.344771624,617.9400024,1.435572505,617.9400024,1.328805566,617.9400024,0.9419463277,
618.9699707,22.89912224,618.9699707,20.16239357,618.9699707,11.3274498,618.9699707,5.831480026,618.9699707,2.460490227,618.9699707,1.963809848,618.9699707,1.351677537,618.9699707,1.386001348,618.9699707,0.7313148975,618.9699707,1.319529057,
620,22.51098061,620,19.54353333,620,10.56565475,620,5.306471348,620,2.808186769,620,2.269569397,620,1.641464472,620,1.308110356,620,1.020457745,620,1.0202595,
621.0200195,21.9160347,621.0200195,18.61375427,621.0200195,10.63924503,621.0200195,4.924048901,621.0200195,2.758943319,621.0200195,1.875802159,621.0200195,1.406947374,621.0200195,0.8982035518,621.0200195,1.05733645,621.0200195,1.208488464,
622.0499878,21.25942039,622.0499878,17.45064735,622.0499878,9.827464104,622.0499878,4.953588009,622.0499878,2.545471191,622.0499878,1.804086089,622.0499878,1.842316628,622.0499878,1.148048282,622.0499878,1.057488918,622.0499878,1.07511127,
622.9400024,19.96934891,622.9400024,18.01843834,622.9400024,10.86091423,622.9400024,4.956357479,622.9400024,2.40338397,622.9400024,1.716983795,622.9400024,1.397859812,622.9400024,1.312733531,622.9400024,0.9798431993,622.9400024,1.101321578,
623.9699707,19.19187355,623.9699707,17.14917946,623.9699707,10.12669945,623.9699707,4.662333965,623.9699707,2.549162388,623.9699707,2.0314641,623.9699707,1.594511032,623.9699707,1.907556891,623.9699707,0.5786732435,623.9699707,1.5048908,
625,19.36957359,625,16.07205963,625,9.737588882,625,4.256089687,625,2.231384754,625,1.288600445,625,1.859267712,625,0.9880446792,625,1.093363762,625,0.9819806814,
626.0200195,18.52426338,626.0200195,15.57032871,626.0200195,8.262161255,626.0200195,4.483086586,626.0200195,1.966709733,626.0200195,1.611374378,626.0200195,1.230419755,626.0200195,0.9085861444,626.0200195,1.043514609,626.0200195,1.113963366,
627.0499878,18.30527115,627.0499878,15.68405914,627.0499878,8.731133461,627.0499878,4.506737232,627.0499878,2.019348145,627.0499878,1.820940852,627.0499878,1.274546862,627.0499878,0.8898556828,627.0499878,1.080358028,627.0499878,1.126622558,
627.9400024,16.78601265,627.9400024,15.01900196,627.9400024,8.403747559,627.9400024,4.354275227,627.9400024,1.951219559,627.9400024,1.431024671,627.9400024,1.250625372,627.9400024,1.034780025,627.9400024,1.026325226,627.9400024,0.81413728,
628.9699707,16.77465248,628.9699707,14.00211906,628.9699707,8.438630104,628.9699707,4.059667587,628.9699707,2.246313095,628.9699707,1.515225649,628.9699707,1.570860505,628.9699707,0.8364906311,628.9699707,1.318423748,628.9699707,0.9892594814,
630,17.08194733,630,14.39342022,630,8.15466404,630,3.98917222,630,2.493413687,630,1.682557464,630,1.410011053,630,1.038113594,630,1.00160265,630,0.9615846872,
631.0100098,15.73178005,631.0100098,12.88382149,631.0100098,7.745543003,631.0100098,3.888380766,631.0100098,1.878250837,631.0100098,1.164958119,631.0100098,1.506946087,631.0100098,0.943115294,631.0100098,0.8333333731,631.0100098,1.20348525,
632.0200195,14.9488945,632.0200195,12.89436436,632.0200195,7.239533901,632.0200195,3.802638292,632.0200195,2.369668245,632.0200195,1.626794219,632.0200195,1.144328356,632.0200195,0.781517148,632.0200195,1.030421972,632.0200195,0.9326068759,
633.039978,14.40704346,633.039978,12.66457176,633.039978,7.308664799,633.039978,3.986279964,633.039978,1.79966855,633.039978,1.215682268,633.039978,1.247241616,633.039978,1.006897211,633.039978,0.6691840887,633.039978,0.55511868,
634.0499878,14.01128006,634.0499878,12.01923084,634.0499878,6.574652672,634.0499878,3.378074169,634.0499878,1.774208665,634.0499878,1.008645535,634.0499878,1.133786917,634.0499878,0.8767230511,634.0499878,1.029058695,634.0499878,1.024399281,
635.0700073,13.71098709,635.0700073,12.1397419,635.0700073,6.90790987,635.0700073,3.432023048,635.0700073,1.747426152,635.0700073,1.770694971,635.0700073,1.344666958,635.0700073,1.122964621,635.0700073,0.7504502535,635.0700073,0.6836938858,
635.9400024,13.54113388,635.9400024,11.51066303,635.9400024,6.684492111,635.9400024,3.160824537,635.9400024,1.631701589,635.9400024,0.9657636881,635.9400024,1.239783287,635.9400024,0.8215239644,635.9400024,0.9130664468,635.9400024,1.060343146,
636.9500122,12.9740057,636.9500122,11.31600952,636.9500122,6.708467007,636.9500122,3.093943357,636.9500122,1.584195256,636.9500122,1.177135229,636.9500122,1.405415535,636.9500122,0.8144980669,636.9500122,0.7836607099,636.9500122,0.7250229716,
637.9699707,11.98875141,637.9699707,10.75719452,637.9699707,5.901964188,637.9699707,3.418013811,637.9699707,1.311443567,637.9699707,1.011680365,637.9699707,0.9772442579,637.9699707,0.6464124322,637.9699707,0.6559362411,637.9699707,0.8652182221,
638.9799805,11.96692753,638.9799805,9.954264641,638.9799805,6.38977623,638.9799805,3.0192132,638.9799805,1.461854696,638.9799805,1.323334813,638.9799805,0.882571578,638.9799805,1.04874146,638.9799805,0.5619412661,638.9799805,0.729678452,
640,11.52403069,640,9.792948723,640,5.717580318,640,2.930536985,640,1.565910697,640,0.8911402225,640,1.267303586,640,0.6881297231,640,0.3993012309,640,0.7466401458,
641.0100098,12.04504871,641.0100098,8.840037346,641.0100098,6.09954834,641.0100098,2.87566185,641.0100098,1.716983795,641.0100098,0.6950995326,641.0100098,0.9343496561,641.0100098,0.7851347923,641.0100098,0.5407531261,641.0100098,0.7740687132,
642.0200195,10.46080494,642.0200195,9.460310936,642.0200195,5.481149673,642.0200195,2.583276749,642.0200195,1.587530732,642.0200195,1.014994264,642.0200195,1.165120959,642.0200195,0.6606266499,642.0200195,0.5743550658,642.0200195,0.5801305771,
643.039978,10.14641094,643.039978,9.319706917,643.039978,5.207857609,643.039978,2.42796278,643.039978,1.492968678,643.039978,0.8069875836,643.039978,1.221933722,643.039978,0.700525403,643.039978,0.6303336024,643.039978,0.8080399632,
644.0499878,9.456367493,644.0499878,8.755880356,644.0499878,4.750482082,644.0499878,2.43925333,644.0499878,1.430546999,644.0499878,1.041814685,644.0499878,1.161496401,644.0499878,0.7270259857,644.0499878,0.7121782303,644.0499878,0.612057507,
645.0700073,9.445676804,645.0700073,8.396677017,645.0700073,4.849061012,645.0700073,2.176832914,645.0700073,1.084117651,645.0700073,0.9054086208,645.0700073,0.8392574787,645.0700073,0.3425663114,645.0700073,0.7523699999,645.0700073,0.5041084886,
645.9400024,9.38449955,645.9400024,7.863812923,645.9400024,4.937226772,645.9400024,2.51361537,645.9400024,1.384338498,645.9400024,0.7933359742,645.9400024,0.9566631913,645.9400024,0.285360992,645.9400024,0.8490566015,645.9400024,0.4396678209,
646.9500122,8.912340164,646.9500122,8.519748688,646.9500122,4.554181576,646.9500122,2.597402573,646.9500122,1.347208023,646.9500122,1.001821518,646.9500122,1.079966664,646.9500122,0.7570022941,646.9500122,0.8008409142,646.9500122,0.5127153397,
647.9699707,8.751968384,647.9699707,7.797690868,647.9699707,4.890878201,647.9699707,2.292443991,647.9699707,0.8593935966,647.9699707,0.653442204,647.9699707,0.9359352589,647.9699707,0.5542399883,647.9699707,0.9405009151,647.9699707,0.9393849969,
648.9799805,8.504638672,648.9799805,7.649637699,648.9799805,4.63353014,648.9799805,2.316714048,648.9799805,1.322563887,648.9799805,0.9757049084,648.9799805,1.15551281,648.9799805,0.8714175224,648.9799805,0.7841599584,648.9799805,0.6340844631,
650,9.372312546,650,6.894997597,650,4.134889126,650,2.157843828,650,1.146460295,650,0.8021516204,650,1.121513605,650,0.6733682752,650,0.8476266265,650,0.4773497581,

7.5,
7.5
Collection Time: 4/3/2025 10:52:28 AM
Operator Name  :
Scan Software Version: 1.2(147)
Parameter List :
Instrument                        Cary Eclipse
Instrument Serial Number          EL00063371
Data mode                         Fluorescence
Scan mode                         Emission
X Mode                            Wavelength (nm)
Start (nm)                        360.00
Stop (nm)                         650.00
Ex. Wavelength (nm)               350.00
Ex. Slit (nm)                     5
Em. Slit (nm)                     5
Scan rate (nm/min)                600.00
Data interval (nm)                1.0000
Averaging Time (s)                0.1000
Excitation filter                 Auto
Emission filter                   Open
PMT voltage (V)                   625
Corrected spectra                 OFF
Multicell holder                  Multicell
Multi zero                       OFF
Method Log     :
Method Name    : Default
Date/Time stamp: 4/3/2025 9:12:13 AM
Method Modifications:
Overlayed Graphs Changed: 4/3/2025 9:47:38 AM, Old:OFF, New:ON
Cell Changer Changed: 4/3/2025 9:47:38 AM, Old:OFF, New:ON
Cell2 Changed: 4/3/2025 9:47:38 AM, Old:OFF, New:ON
Monitoring device: Changed: 4/3/2025 9:47:38 AM, Old:PCB 150, New:Block
Emission Wavelength Changed: 4/3/2025 9:47:38 AM, Old: 400.00, New: 360.00
Stop Wavelength Changed: 4/3/2025 9:47:38 AM, Old: 600.00, New: 650.00
PMT Volts Changed: 4/3/2025 9:48:21 AM, Old:600, New:700
Emission PMT (V): Changed: 4/3/2025 9:48:21 AM, Old: 600, New: 700
PMT Volts Changed: 4/3/2025 9:49:03 AM, Old:700, New:670
Emission PMT (V): Changed: 4/3/2025 9:49:03 AM, Old: 700, New: 670
PMT Volts Changed: 4/3/2025 9:49:47 AM, Old:670, New:660
Emission PMT (V): Changed: 4/3/2025 9:49:47 AM, Old: 670, New: 660
PMT Volts Changed: 4/3/2025 9:50:31 AM, Old:660, New:665
Emission PMT (V): Changed: 4/3/2025 9:50:31 AM, Old: 660, New: 665
Sample2 Changed: 4/3/2025 9:51:46 AM, Old:Sample2, New:60
Sample2 Changed: 4/3/2025 10:26:04 AM, Old:60, New:30
Sample2 Changed: 4/3/2025 10:37:08 AM, Old:30, New:15
Sample2 Changed: 4/3/2025 10:46:35 AM, Old:15, New:7.5
PMT Volts Changed: 4/3/2025 10:48:40 AM, Old:665, New:550
Emission PMT (V): Changed: 4/3/2025 10:48:40 AM, Old: 665, New: 550
PMT Volts Changed: 4/3/2025 10:49:35 AM, Old:550, New:600
Emission PMT (V): Changed: 4/3/2025 10:49:35 AM, Old: 550, New: 600
PMT Volts Changed: 4/3/2025 10:50:19 AM, Old:600, New:650
Emission PMT (V): Changed: 4/3/2025 10:50:19 AM, Old: 600, New: 650
PMT Volts Changed: 4/3/2025 10:50:55 AM, Old:650, New:630
Emission PMT (V): Changed: 4/3/2025 10:50:55 AM, Old: 650, New: 630
PMT Volts Changed: 4/3/2025 10:51:36 AM, Old:630, New:625
Emission PMT (V): Changed: 4/3/2025 10:51:36 AM, Old: 630, New: 625
End Method Modifications

3.75,
3.75
Collection Time: 4/3/2025 10:59:47 AM
Operator Name  :
Scan Software Version: 1.2(147)
Parameter List :
Instrument                        Cary Eclipse
Instrument Serial Number          EL00063371
Data mode                         Fluorescence
Scan mode                         Emission
X Mode                            Wavelength (nm)
Start (nm)                        360.00
Stop (nm)                         650.00
Ex. Wavelength (nm)               350.00
Ex. Slit (nm)                     5
Em. Slit (nm)                     5
Scan rate (nm/min)                600.00
Data interval (nm)                1.0000
Averaging Time (s)                0.1000
Excitation filter                 Auto
Emission filter                   Open
PMT voltage (V)                   625
Corrected spectra                 OFF
Multicell holder                  Multicell
Multi zero                       OFF
Method Log     :
Method Name    : Default
Date/Time stamp: 4/3/2025 9:12:13 AM
Method Modifications:
Overlayed Graphs Changed: 4/3/2025 9:47:38 AM, Old:OFF, New:ON
Cell Changer Changed: 4/3/2025 9:47:38 AM, Old:OFF, New:ON
Cell2 Changed: 4/3/2025 9:47:38 AM, Old:OFF, New:ON
Monitoring device: Changed: 4/3/2025 9:47:38 AM, Old:PCB 150, New:Block
Emission Wavelength Changed: 4/3/2025 9:47:38 AM, Old: 400.00, New: 360.00
Stop Wavelength Changed: 4/3/2025 9:47:38 AM, Old: 600.00, New: 650.00
PMT Volts Changed: 4/3/2025 9:48:21 AM, Old:600, New:700
Emission PMT (V): Changed: 4/3/2025 9:48:21 AM, Old: 600, New: 700
PMT Volts Changed: 4/3/2025 9:49:03 AM, Old:700, New:670
Emission PMT (V): Changed: 4/3/2025 9:49:03 AM, Old: 700, New: 670
PMT Volts Changed: 4/3/2025 9:49:47 AM, Old:670, New:660
Emission PMT (V): Changed: 4/3/2025 9:49:47 AM, Old: 670, New: 660
PMT Volts Changed: 4/3/2025 9:50:31 AM, Old:660, New:665
Emission PMT (V): Changed: 4/3/2025 9:50:31 AM, Old: 660, New: 665
Sample2 Changed: 4/3/2025 9:51:46 AM, Old:Sample2, New:60
Sample2 Changed: 4/3/2025 10:26:04 AM, Old:60, New:30
Sample2 Changed: 4/3/2025 10:37:08 AM, Old:30, New:15
Sample2 Changed: 4/3/2025 10:46:35 AM, Old:15, New:7.5
PMT Volts Changed: 4/3/2025 10:48:40 AM, Old:665, New:550
Emission PMT (V): Changed: 4/3/2025 10:48:40 AM, Old: 665, New: 550
PMT Volts Changed: 4/3/2025 10:49:35 AM, Old:550, New:600
Emission PMT (V): Changed: 4/3/2025 10:49:35 AM, Old: 550, New: 600
PMT Volts Changed: 4/3/2025 10:50:19 AM, Old:600, New:650
Emission PMT (V): Changed: 4/3/2025 10:50:19 AM, Old: 600, New: 650
PMT Volts Changed: 4/3/2025 10:50:55 AM, Old:650, New:630
Emission PMT (V): Changed: 4/3/2025 10:50:55 AM, Old: 650, New: 630
PMT Volts Changed: 4/3/2025 10:51:36 AM, Old:630, New:625
Emission PMT (V): Changed: 4/3/2025 10:51:36 AM, Old: 630, New: 625
Sample2 Changed: 4/3/2025 10:59:47 AM, Old:7.5, New:3.75
End Method Modifications

1.125,
1.125
Collection Time: 4/3/2025 11:10:33 AM
Operator Name  :
Scan Software Version: 1.2(147)
Parameter List :
Instrument                        Cary Eclipse
Instrument Serial Number          EL00063371
Data mode                         Fluorescence
Scan mode                         Emission
X Mode                            Wavelength (nm)
Start (nm)                        360.00
Stop (nm)                         650.00
Ex. Wavelength (nm)               350.00
Ex. Slit (nm)                     5
Em. Slit (nm)                     5
Scan rate (nm/min)                600.00
Data interval (nm)                1.0000
Averaging Time (s)                0.1000
Excitation filter                 Auto
Emission filter                   Open
PMT voltage (V)                   625
Corrected spectra                 OFF
Multicell holder                  Multicell
Multi zero                       OFF
Method Log     :
Method Name    : Default
Date/Time stamp: 4/3/2025 9:12:13 AM
Method Modifications:
Overlayed Graphs Changed: 4/3/2025 9:47:38 AM, Old:OFF, New:ON
Cell Changer Changed: 4/3/2025 9:47:38 AM, Old:OFF, New:ON
Cell2 Changed: 4/3/2025 9:47:38 AM, Old:OFF, New:ON
Monitoring device: Changed: 4/3/2025 9:47:38 AM, Old:PCB 150, New:Block
Emission Wavelength Changed: 4/3/2025 9:47:38 AM, Old: 400.00, New: 360.00
Stop Wavelength Changed: 4/3/2025 9:47:38 AM, Old: 600.00, New: 650.00
PMT Volts Changed: 4/3/2025 9:48:21 AM, Old:600, New:700
Emission PMT (V): Changed: 4/3/2025 9:48:21 AM, Old: 600, New: 700
PMT Volts Changed: 4/3/2025 9:49:03 AM, Old:700, New:670
Emission PMT (V): Changed: 4/3/2025 9:49:03 AM, Old: 700, New: 670
PMT Volts Changed: 4/3/2025 9:49:47 AM, Old:670, New:660
Emission PMT (V): Changed: 4/3/2025 9:49:47 AM, Old: 670, New: 660
PMT Volts Changed: 4/3/2025 9:50:31 AM, Old:660, New:665
Emission PMT (V): Changed: 4/3/2025 9:50:31 AM, Old: 660, New: 665
Sample2 Changed: 4/3/2025 9:51:46 AM, Old:Sample2, New:60
Sample2 Changed: 4/3/2025 10:26:04 AM, Old:60, New:30
Sample2 Changed: 4/3/2025 10:37:08 AM, Old:30, New:15
Sample2 Changed: 4/3/2025 10:46:35 AM, Old:15, New:7.5
PMT Volts Changed: 4/3/2025 10:48:40 AM, Old:665, New:550
Emission PMT (V): Changed: 4/3/2025 10:48:40 AM, Old: 665, New: 550
PMT Volts Changed: 4/3/2025 10:49:35 AM, Old:550, New:600
Emission PMT (V): Changed: 4/3/2025 10:49:35 AM, Old: 550, New: 600
PMT Volts Changed: 4/3/2025 10:50:19 AM, Old:600, New:650
Emission PMT (V): Changed: 4/3/2025 10:50:19 AM, Old: 600, New: 650
PMT Volts Changed: 4/3/2025 10:50:55 AM, Old:650, New:630
Emission PMT (V): Changed: 4/3/2025 10:50:55 AM, Old: 650, New: 630
PMT Volts Changed: 4/3/2025 10:51:36 AM, Old:630, New:625
Emission PMT (V): Changed: 4/3/2025 10:51:36 AM, Old: 630, New: 625
Sample2 Changed: 4/3/2025 10:59:47 AM, Old:7.5, New:3.75
Sample2 Changed: 4/3/2025 11:10:33 AM, Old:3.75, New:1.125
End Method Modifications

0.5,
0.5
Collection Time: 4/3/2025 11:19:59 AM
Operator Name  :
Scan Software Version: 1.2(147)
Parameter List :
Instrument                        Cary Eclipse
Instrument Serial Number          EL00063371
Data mode                         Fluorescence
Scan mode                         Emission
X Mode                            Wavelength (nm)
Start (nm)                        360.00
Stop (nm)                         650.00
Ex. Wavelength (nm)               350.00
Ex. Slit (nm)                     5
Em. Slit (nm)                     5
Scan rate (nm/min)                600.00
Data interval (nm)                1.0000
Averaging Time (s)                0.1000
Excitation filter                 Auto
Emission filter                   Open
PMT voltage (V)                   625
Corrected spectra                 OFF
Multicell holder                  Multicell
Multi zero                       OFF
Method Log     :
Method Name    : Default
Date/Time stamp: 4/3/2025 9:12:13 AM
Method Modifications:
Overlayed Graphs Changed: 4/3/2025 9:47:38 AM, Old:OFF, New:ON
Cell Changer Changed: 4/3/2025 9:47:38 AM, Old:OFF, New:ON
Cell2 Changed: 4/3/2025 9:47:38 AM, Old:OFF, New:ON
Monitoring device: Changed: 4/3/2025 9:47:38 AM, Old:PCB 150, New:Block
Emission Wavelength Changed: 4/3/2025 9:47:38 AM, Old: 400.00, New: 360.00
Stop Wavelength Changed: 4/3/2025 9:47:38 AM, Old: 600.00, New: 650.00
PMT Volts Changed: 4/3/2025 9:48:21 AM, Old:600, New:700
Emission PMT (V): Changed: 4/3/2025 9:48:21 AM, Old: 600, New: 700
PMT Volts Changed: 4/3/2025 9:49:03 AM, Old:700, New:670
Emission PMT (V): Changed: 4/3/2025 9:49:03 AM, Old: 700, New: 670
PMT Volts Changed: 4/3/2025 9:49:47 AM, Old:670, New:660
Emission PMT (V): Changed: 4/3/2025 9:49:47 AM, Old: 670, New: 660
PMT Volts Changed: 4/3/2025 9:50:31 AM, Old:660, New:665
Emission PMT (V): Changed: 4/3/2025 9:50:31 AM, Old: 660, New: 665
Sample2 Changed: 4/3/2025 9:51:46 AM, Old:Sample2, New:60
Sample2 Changed: 4/3/2025 10:26:04 AM, Old:60, New:30
Sample2 Changed: 4/3/2025 10:37:08 AM, Old:30, New:15
Sample2 Changed: 4/3/2025 10:46:35 AM, Old:15, New:7.5
PMT Volts Changed: 4/3/2025 10:48:40 AM, Old:665, New:550
Emission PMT (V): Changed: 4/3/2025 10:48:40 AM, Old: 665, New: 550
PMT Volts Changed: 4/3/2025 10:49:35 AM, Old:550, New:600
Emission PMT (V): Changed: 4/3/2025 10:49:35 AM, Old: 550, New: 600
PMT Volts Changed: 4/3/2025 10:50:19 AM, Old:600, New:650
Emission PMT (V): Changed: 4/3/2025 10:50:19 AM, Old: 600, New: 650
PMT Volts Changed: 4/3/2025 10:50:55 AM, Old:650, New:630
Emission PMT (V): Changed: 4/3/2025 10:50:55 AM, Old: 650, New: 630
PMT Volts Changed: 4/3/2025 10:51:36 AM, Old:630, New:625
Emission PMT (V): Changed: 4/3/2025 10:51:36 AM, Old: 630, New: 625
Sample2 Changed: 4/3/2025 10:59:47 AM, Old:7.5, New:3.75
Sample2 Changed: 4/3/2025 11:10:33 AM, Old:3.75, New:1.125
Sample2 Changed: 4/3/2025 11:19:59 AM, Old:1.125, New:0.5
End Method Modifications

0.25,
0.25
Collection Time: 4/3/2025 11:29:44 AM
Operator Name  :
Scan Software Version: 1.2(147)
Parameter List :
Instrument                        Cary Eclipse
Instrument Serial Number          EL00063371
Data mode                         Fluorescence
Scan mode                         Emission
X Mode                            Wavelength (nm)
Start (nm)                        360.00
Stop (nm)                         650.00
Ex. Wavelength (nm)               350.00
Ex. Slit (nm)                     5
Em. Slit (nm)                     5
Scan rate (nm/min)                600.00
Data interval (nm)                1.0000
Averaging Time (s)                0.1000
Excitation filter                 Auto
Emission filter                   Open
PMT voltage (V)                   625
Corrected spectra                 OFF
Multicell holder                  Multicell
Multi zero                       OFF
Method Log     :
Method Name    : Default
Date/Time stamp: 4/3/2025 9:12:13 AM
Method Modifications:
Overlayed Graphs Changed: 4/3/2025 9:47:38 AM, Old:OFF, New:ON
Cell Changer Changed: 4/3/2025 9:47:38 AM, Old:OFF, New:ON
Cell2 Changed: 4/3/2025 9:47:38 AM, Old:OFF, New:ON
Monitoring device: Changed: 4/3/2025 9:47:38 AM, Old:PCB 150, New:Block
Emission Wavelength Changed: 4/3/2025 9:47:38 AM, Old: 400.00, New: 360.00
Stop Wavelength Changed: 4/3/2025 9:47:38 AM, Old: 600.00, New: 650.00
PMT Volts Changed: 4/3/2025 9:48:21 AM, Old:600, New:700
Emission PMT (V): Changed: 4/3/2025 9:48:21 AM, Old: 600, New: 700
PMT Volts Changed: 4/3/2025 9:49:03 AM, Old:700, New:670
Emission PMT (V): Changed: 4/3/2025 9:49:03 AM, Old: 700, New: 670
PMT Volts Changed: 4/3/2025 9:49:47 AM, Old:670, New:660
Emission PMT (V): Changed: 4/3/2025 9:49:47 AM, Old: 670, New: 660
PMT Volts Changed: 4/3/2025 9:50:31 AM, Old:660, New:665
Emission PMT (V): Changed: 4/3/2025 9:50:31 AM, Old: 660, New: 665
Sample2 Changed: 4/3/2025 9:51:46 AM, Old:Sample2, New:60
Sample2 Changed: 4/3/2025 10:26:04 AM, Old:60, New:30
Sample2 Changed: 4/3/2025 10:37:08 AM, Old:30, New:15
Sample2 Changed: 4/3/2025 10:46:35 AM, Old:15, New:7.5
PMT Volts Changed: 4/3/2025 10:48:40 AM, Old:665, New:550
Emission PMT (V): Changed: 4/3/2025 10:48:40 AM, Old: 665, New: 550
PMT Volts Changed: 4/3/2025 10:49:35 AM, Old:550, New:600
Emission PMT (V): Changed: 4/3/2025 10:49:35 AM, Old: 550, New: 600
PMT Volts Changed: 4/3/2025 10:50:19 AM, Old:600, New:650
Emission PMT (V): Changed: 4/3/2025 10:50:19 AM, Old: 600, New: 650
PMT Volts Changed: 4/3/2025 10:50:55 AM, Old:650, New:630
Emission PMT (V): Changed: 4/3/2025 10:50:55 AM, Old: 650, New: 630
PMT Volts Changed: 4/3/2025 10:51:36 AM, Old:630, New:625
Emission PMT (V): Changed: 4/3/2025 10:51:36 AM, Old: 630, New: 625
Sample2 Changed: 4/3/2025 10:59:47 AM, Old:7.5, New:3.75
Sample2 Changed: 4/3/2025 11:10:33 AM, Old:3.75, New:1.125
Sample2 Changed: 4/3/2025 11:19:59 AM, Old:1.125, New:0.5
Sample2 Changed: 4/3/2025 11:29:44 AM, Old:0.5, New:0.25
End Method Modifications

0.1,
0.1
Collection Time: 4/3/2025 11:39:56 AM
Operator Name  :
Scan Software Version: 1.2(147)
Parameter List :
Instrument                        Cary Eclipse
Instrument Serial Number          EL00063371
Data mode                         Fluorescence
Scan mode                         Emission
X Mode                            Wavelength (nm)
Start (nm)                        360.00
Stop (nm)                         650.00
Ex. Wavelength (nm)               350.00
Ex. Slit (nm)                     5
Em. Slit (nm)                     5
Scan rate (nm/min)                600.00
Data interval (nm)                1.0000
Averaging Time (s)                0.1000
Excitation filter                 Auto
Emission filter                   Open
PMT voltage (V)                   625
Corrected spectra                 OFF
Multicell holder                  Multicell
Multi zero                       OFF
Method Log     :
Method Name    : Default
Date/Time stamp: 4/3/2025 9:12:13 AM
Method Modifications:
Overlayed Graphs Changed: 4/3/2025 9:47:38 AM, Old:OFF, New:ON
Cell Changer Changed: 4/3/2025 9:47:38 AM, Old:OFF, New:ON
Cell2 Changed: 4/3/2025 9:47:38 AM, Old:OFF, New:ON
Monitoring device: Changed: 4/3/2025 9:47:38 AM, Old:PCB 150, New:Block
Emission Wavelength Changed: 4/3/2025 9:47:38 AM, Old: 400.00, New: 360.00
Stop Wavelength Changed: 4/3/2025 9:47:38 AM, Old: 600.00, New: 650.00
PMT Volts Changed: 4/3/2025 9:48:21 AM, Old:600, New:700
Emission PMT (V): Changed: 4/3/2025 9:48:21 AM, Old: 600, New: 700
PMT Volts Changed: 4/3/2025 9:49:03 AM, Old:700, New:670
Emission PMT (V): Changed: 4/3/2025 9:49:03 AM, Old: 700, New: 670
PMT Volts Changed: 4/3/2025 9:49:47 AM, Old:670, New:660
Emission PMT (V): Changed: 4/3/2025 9:49:47 AM, Old: 670, New: 660
PMT Volts Changed: 4/3/2025 9:50:31 AM, Old:660, New:665
Emission PMT (V): Changed: 4/3/2025 9:50:31 AM, Old: 660, New: 665
Sample2 Changed: 4/3/2025 9:51:46 AM, Old:Sample2, New:60
Sample2 Changed: 4/3/2025 10:26:04 AM, Old:60, New:30
Sample2 Changed: 4/3/2025 10:37:08 AM, Old:30, New:15
Sample2 Changed: 4/3/2025 10:46:35 AM, Old:15, New:7.5
PMT Volts Changed: 4/3/2025 10:48:40 AM, Old:665, New:550
Emission PMT (V): Changed: 4/3/2025 10:48:40 AM, Old: 665, New: 550
PMT Volts Changed: 4/3/2025 10:49:35 AM, Old:550, New:600
Emission PMT (V): Changed: 4/3/2025 10:49:35 AM, Old: 550, New: 600
PMT Volts Changed: 4/3/2025 10:50:19 AM, Old:600, New:650
Emission PMT (V): Changed: 4/3/2025 10:50:19 AM, Old: 600, New: 650
PMT Volts Changed: 4/3/2025 10:50:55 AM, Old:650, New:630
Emission PMT (V): Changed: 4/3/2025 10:50:55 AM, Old: 650, New: 630
PMT Volts Changed: 4/3/2025 10:51:36 AM, Old:630, New:625
Emission PMT (V): Changed: 4/3/2025 10:51:36 AM, Old: 630, New: 625
Sample2 Changed: 4/3/2025 10:59:47 AM, Old:7.5, New:3.75
Sample2 Changed: 4/3/2025 11:10:33 AM, Old:3.75, New:1.125
Sample2 Changed: 4/3/2025 11:19:59 AM, Old:1.125, New:0.5
Sample2 Changed: 4/3/2025 11:29:44 AM, Old:0.5, New:0.25
Sample2 Changed: 4/3/2025 11:39:56 AM, Old:0.25, New:0.1
End Method Modifications

0.05,
0.05
Collection Time: 4/3/2025 11:48:50 AM
Operator Name  :
Scan Software Version: 1.2(147)
Parameter List :
Instrument                        Cary Eclipse
Instrument Serial Number          EL00063371
Data mode                         Fluorescence
Scan mode                         Emission
X Mode                            Wavelength (nm)
Start (nm)                        360.00
Stop (nm)                         650.00
Ex. Wavelength (nm)               350.00
Ex. Slit (nm)                     5
Em. Slit (nm)                     5
Scan rate (nm/min)                600.00
Data interval (nm)                1.0000
Averaging Time (s)                0.1000
Excitation filter                 Auto
Emission filter                   Open
PMT voltage (V)                   625
Corrected spectra                 OFF
Multicell holder                  Multicell
Multi zero                       OFF
Method Log     :
Method Name    : Default
Date/Time stamp: 4/3/2025 9:12:13 AM
Method Modifications:
Overlayed Graphs Changed: 4/3/2025 9:47:38 AM, Old:OFF, New:ON
Cell Changer Changed: 4/3/2025 9:47:38 AM, Old:OFF, New:ON
Cell2 Changed: 4/3/2025 9:47:38 AM, Old:OFF, New:ON
Monitoring device: Changed: 4/3/2025 9:47:38 AM, Old:PCB 150, New:Block
Emission Wavelength Changed: 4/3/2025 9:47:38 AM, Old: 400.00, New: 360.00
Stop Wavelength Changed: 4/3/2025 9:47:38 AM, Old: 600.00, New: 650.00
PMT Volts Changed: 4/3/2025 9:48:21 AM, Old:600, New:700
Emission PMT (V): Changed: 4/3/2025 9:48:21 AM, Old: 600, New: 700
PMT Volts Changed: 4/3/2025 9:49:03 AM, Old:700, New:670
Emission PMT (V): Changed: 4/3/2025 9:49:03 AM, Old: 700, New: 670
PMT Volts Changed: 4/3/2025 9:49:47 AM, Old:670, New:660
Emission PMT (V): Changed: 4/3/2025 9:49:47 AM, Old: 670, New: 660
PMT Volts Changed: 4/3/2025 9:50:31 AM, Old:660, New:665
Emission PMT (V): Changed: 4/3/2025 9:50:31 AM, Old: 660, New: 665
Sample2 Changed: 4/3/2025 9:51:46 AM, Old:Sample2, New:60
Sample2 Changed: 4/3/2025 10:26:04 AM, Old:60, New:30
Sample2 Changed: 4/3/2025 10:37:08 AM, Old:30, New:15
Sample2 Changed: 4/3/2025 10:46:35 AM, Old:15, New:7.5
PMT Volts Changed: 4/3/2025 10:48:40 AM, Old:665, New:550
Emission PMT (V): Changed: 4/3/2025 10:48:40 AM, Old: 665, New: 550
PMT Volts Changed: 4/3/2025 10:49:35 AM, Old:550, New:600
Emission PMT (V): Changed: 4/3/2025 10:49:35 AM, Old: 550, New: 600
PMT Volts Changed: 4/3/2025 10:50:19 AM, Old:600, New:650
Emission PMT (V): Changed: 4/3/2025 10:50:19 AM, Old: 600, New: 650
PMT Volts Changed: 4/3/2025 10:50:55 AM, Old:650, New:630
Emission PMT (V): Changed: 4/3/2025 10:50:55 AM, Old: 650, New: 630
PMT Volts Changed: 4/3/2025 10:51:36 AM, Old:630, New:625
Emission PMT (V): Changed: 4/3/2025 10:51:36 AM, Old: 630, New: 625
Sample2 Changed: 4/3/2025 10:59:47 AM, Old:7.5, New:3.75
Sample2 Changed: 4/3/2025 11:10:33 AM, Old:3.75, New:1.125
Sample2 Changed: 4/3/2025 11:19:59 AM, Old:1.125, New:0.5
Sample2 Changed: 4/3/2025 11:29:44 AM, Old:0.5, New:0.25
Sample2 Changed: 4/3/2025 11:39:56 AM, Old:0.25, New:0.1
Sample2 Changed: 4/3/2025 11:48:50 AM, Old:0.1, New:0.05
End Method Modifications

0.025,
0.025
Collection Time: 4/3/2025 11:56:15 AM
Operator Name  :
Scan Software Version: 1.2(147)
Parameter List :
Instrument                        Cary Eclipse
Instrument Serial Number          EL00063371
Data mode                         Fluorescence
Scan mode                         Emission
X Mode                            Wavelength (nm)
Start (nm)                        360.00
Stop (nm)                         650.00
Ex. Wavelength (nm)               350.00
Ex. Slit (nm)                     5
Em. Slit (nm)                     5
Scan rate (nm/min)                600.00
Data interval (nm)                1.0000
Averaging Time (s)                0.1000
Excitation filter                 Auto
Emission filter                   Open
PMT voltage (V)                   625
Corrected spectra                 OFF
Multicell holder                  Multicell
Multi zero                       OFF
Method Log     :
Method Name    : Default
Date/Time stamp: 4/3/2025 9:12:13 AM
Method Modifications:
Overlayed Graphs Changed: 4/3/2025 9:47:38 AM, Old:OFF, New:ON
Cell Changer Changed: 4/3/2025 9:47:38 AM, Old:OFF, New:ON
Cell2 Changed: 4/3/2025 9:47:38 AM, Old:OFF, New:ON
Monitoring device: Changed: 4/3/2025 9:47:38 AM, Old:PCB 150, New:Block
Emission Wavelength Changed: 4/3/2025 9:47:38 AM, Old: 400.00, New: 360.00
Stop Wavelength Changed: 4/3/2025 9:47:38 AM, Old: 600.00, New: 650.00
PMT Volts Changed: 4/3/2025 9:48:21 AM, Old:600, New:700
Emission PMT (V): Changed: 4/3/2025 9:48:21 AM, Old: 600, New: 700
PMT Volts Changed: 4/3/2025 9:49:03 AM, Old:700, New:670
Emission PMT (V): Changed: 4/3/2025 9:49:03 AM, Old: 700, New: 670
PMT Volts Changed: 4/3/2025 9:49:47 AM, Old:670, New:660
Emission PMT (V): Changed: 4/3/2025 9:49:47 AM, Old: 670, New: 660
PMT Volts Changed: 4/3/2025 9:50:31 AM, Old:660, New:665
Emission PMT (V): Changed: 4/3/2025 9:50:31 AM, Old: 660, New: 665
Sample2 Changed: 4/3/2025 9:51:46 AM, Old:Sample2, New:60
Sample2 Changed: 4/3/2025 10:26:04 AM, Old:60, New:30
Sample2 Changed: 4/3/2025 10:37:08 AM, Old:30, New:15
Sample2 Changed: 4/3/2025 10:46:35 AM, Old:15, New:7.5
PMT Volts Changed: 4/3/2025 10:48:40 AM, Old:665, New:550
Emission PMT (V): Changed: 4/3/2025 10:48:40 AM, Old: 665, New: 550
PMT Volts Changed: 4/3/2025 10:49:35 AM, Old:550, New:600
Emission PMT (V): Changed: 4/3/2025 10:49:35 AM, Old: 550, New: 600
PMT Volts Changed: 4/3/2025 10:50:19 AM, Old:600, New:650
Emission PMT (V): Changed: 4/3/2025 10:50:19 AM, Old: 600, New: 650
PMT Volts Changed: 4/3/2025 10:50:55 AM, Old:650, New:630
Emission PMT (V): Changed: 4/3/2025 10:50:55 AM, Old: 650, New: 630
PMT Volts Changed: 4/3/2025 10:51:36 AM, Old:630, New:625
Emission PMT (V): Changed: 4/3/2025 10:51:36 AM, Old: 630, New: 625
Sample2 Changed: 4/3/2025 10:59:47 AM, Old:7.5, New:3.75
Sample2 Changed: 4/3/2025 11:10:33 AM, Old:3.75, New:1.125
Sample2 Changed: 4/3/2025 11:19:59 AM, Old:1.125, New:0.5
Sample2 Changed: 4/3/2025 11:29:44 AM, Old:0.5, New:0.25
Sample2 Changed: 4/3/2025 11:39:56 AM, Old:0.25, New:0.1
Sample2 Changed: 4/3/2025 11:48:50 AM, Old:0.1, New:0.05
Sample2 Changed: 4/3/2025 11:56:15 AM, Old:0.05, New:0.025
End Method Modifications

0.00125,
0.00125
Collection Time: 4/3/2025 12:07:39 PM
Operator Name  :
Scan Software Version: 1.2(147)
Parameter List :
Instrument                        Cary Eclipse
Instrument Serial Number          EL00063371
Data mode                         Fluorescence
Scan mode                         Emission
X Mode                            Wavelength (nm)
Start (nm)                        360.00
Stop (nm)                         650.00
Ex. Wavelength (nm)               350.00
Ex. Slit (nm)                     5
Em. Slit (nm)                     5
Scan rate (nm/min)                600.00
Data interval (nm)                1.0000
Averaging Time (s)                0.1000
Excitation filter                 Auto
Emission filter                   Open
PMT voltage (V)                   625
Corrected spectra                 OFF
Multicell holder                  Multicell
Multi zero                       OFF
Method Log     :
Method Name    : Default
Date/Time stamp: 4/3/2025 9:12:13 AM
Method Modifications:
Overlayed Graphs Changed: 4/3/2025 9:47:38 AM, Old:OFF, New:ON
Cell Changer Changed: 4/3/2025 9:47:38 AM, Old:OFF, New:ON
Cell2 Changed: 4/3/2025 9:47:38 AM, Old:OFF, New:ON
Monitoring device: Changed: 4/3/2025 9:47:38 AM, Old:PCB 150, New:Block
Emission Wavelength Changed: 4/3/2025 9:47:38 AM, Old: 400.00, New: 360.00
Stop Wavelength Changed: 4/3/2025 9:47:38 AM, Old: 600.00, New: 650.00
PMT Volts Changed: 4/3/2025 9:48:21 AM, Old:600, New:700
Emission PMT (V): Changed: 4/3/2025 9:48:21 AM, Old: 600, New: 700
PMT Volts Changed: 4/3/2025 9:49:03 AM, Old:700, New:670
Emission PMT (V): Changed: 4/3/2025 9:49:03 AM, Old: 700, New: 670
PMT Volts Changed: 4/3/2025 9:49:47 AM, Old:670, New:660
Emission PMT (V): Changed: 4/3/2025 9:49:47 AM, Old: 670, New: 660
PMT Volts Changed: 4/3/2025 9:50:31 AM, Old:660, New:665
Emission PMT (V): Changed: 4/3/2025 9:50:31 AM, Old: 660, New: 665
Sample2 Changed: 4/3/2025 9:51:46 AM, Old:Sample2, New:60
Sample2 Changed: 4/3/2025 10:26:04 AM, Old:60, New:30
Sample2 Changed: 4/3/2025 10:37:08 AM, Old:30, New:15
Sample2 Changed: 4/3/2025 10:46:35 AM, Old:15, New:7.5
PMT Volts Changed: 4/3/2025 10:48:40 AM, Old:665, New:550
Emission PMT (V): Changed: 4/3/2025 10:48:40 AM, Old: 665, New: 550
PMT Volts Changed: 4/3/2025 10:49:35 AM, Old:550, New:600
Emission PMT (V): Changed: 4/3/2025 10:49:35 AM, Old: 550, New: 600
PMT Volts Changed: 4/3/2025 10:50:19 AM, Old:600, New:650
Emission PMT (V): Changed: 4/3/2025 10:50:19 AM, Old: 600, New: 650
PMT Volts Changed: 4/3/2025 10:50:55 AM, Old:650, New:630
Emission PMT (V): Changed: 4/3/2025 10:50:55 AM, Old: 650, New: 630
PMT Volts Changed: 4/3/2025 10:51:36 AM, Old:630, New:625
Emission PMT (V): Changed: 4/3/2025 10:51:36 AM, Old: 630, New: 625
Sample2 Changed: 4/3/2025 10:59:47 AM, Old:7.5, New:3.75
Sample2 Changed: 4/3/2025 11:10:33 AM, Old:3.75, New:1.125
Sample2 Changed: 4/3/2025 11:19:59 AM, Old:1.125, New:0.5
Sample2 Changed: 4/3/2025 11:29:44 AM, Old:0.5, New:0.25
Sample2 Changed: 4/3/2025 11:39:56 AM, Old:0.25, New:0.1
Sample2 Changed: 4/3/2025 11:48:50 AM, Old:0.1, New:0.05
Sample2 Changed: 4/3/2025 11:56:15 AM, Old:0.05, New:0.025
Sample2 Changed: 4/3/2025 12:07:39 PM, Old:0.025, New:0.00125
End Method Modifications

fondo,
fondo
Collection Time: 4/3/2025 12:11:09 PM
Operator Name  :
Scan Software Version: 1.2(147)
Parameter List :
Instrument                        Cary Eclipse
Instrument Serial Number          EL00063371
Data mode                         Fluorescence
Scan mode                         Emission
X Mode                            Wavelength (nm)
Start (nm)                        360.00
Stop (nm)                         650.00
Ex. Wavelength (nm)               350.00
Ex. Slit (nm)                     5
Em. Slit (nm)                     5
Scan rate (nm/min)                600.00
Data interval (nm)                1.0000
Averaging Time (s)                0.1000
Excitation filter                 Auto
Emission filter                   Open
PMT voltage (V)                   625
Corrected spectra                 OFF
Multicell holder                  Multicell
Multi zero                       OFF
Method Log     :
Method Name    : Default
Date/Time stamp: 4/3/2025 9:12:13 AM
Method Modifications:
Overlayed Graphs Changed: 4/3/2025 9:47:38 AM, Old:OFF, New:ON
Cell Changer Changed: 4/3/2025 9:47:38 AM, Old:OFF, New:ON
Cell2 Changed: 4/3/2025 9:47:38 AM, Old:OFF, New:ON
Monitoring device: Changed: 4/3/2025 9:47:38 AM, Old:PCB 150, New:Block
Emission Wavelength Changed: 4/3/2025 9:47:38 AM, Old: 400.00, New: 360.00
Stop Wavelength Changed: 4/3/2025 9:47:38 AM, Old: 600.00, New: 650.00
PMT Volts Changed: 4/3/2025 9:48:21 AM, Old:600, New:700
Emission PMT (V): Changed: 4/3/2025 9:48:21 AM, Old: 600, New: 700
PMT Volts Changed: 4/3/2025 9:49:03 AM, Old:700, New:670
Emission PMT (V): Changed: 4/3/2025 9:49:03 AM, Old: 700, New: 670
PMT Volts Changed: 4/3/2025 9:49:47 AM, Old:670, New:660
Emission PMT (V): Changed: 4/3/2025 9:49:47 AM, Old: 670, New: 660
PMT Volts Changed: 4/3/2025 9:50:31 AM, Old:660, New:665
Emission PMT (V): Changed: 4/3/2025 9:50:31 AM, Old: 660, New: 665
Sample2 Changed: 4/3/2025 9:51:46 AM, Old:Sample2, New:60
Sample2 Changed: 4/3/2025 10:26:04 AM, Old:60, New:30
Sample2 Changed: 4/3/2025 10:37:08 AM, Old:30, New:15
Sample2 Changed: 4/3/2025 10:46:35 AM, Old:15, New:7.5
PMT Volts Changed: 4/3/2025 10:48:40 AM, Old:665, New:550
Emission PMT (V): Changed: 4/3/2025 10:48:40 AM, Old: 665, New: 550
PMT Volts Changed: 4/3/2025 10:49:35 AM, Old:550, New:600
Emission PMT (V): Changed: 4/3/2025 10:49:35 AM, Old: 550, New: 600
PMT Volts Changed: 4/3/2025 10:50:19 AM, Old:600, New:650
Emission PMT (V): Changed: 4/3/2025 10:50:19 AM, Old: 600, New: 650
PMT Volts Changed: 4/3/2025 10:50:55 AM, Old:650, New:630
Emission PMT (V): Changed: 4/3/2025 10:50:55 AM, Old: 650, New: 630
PMT Volts Changed: 4/3/2025 10:51:36 AM, Old:630, New:625
Emission PMT (V): Changed: 4/3/2025 10:51:36 AM, Old: 630, New: 625
Sample2 Changed: 4/3/2025 10:59:47 AM, Old:7.5, New:3.75
Sample2 Changed: 4/3/2025 11:10:33 AM, Old:3.75, New:1.125
Sample2 Changed: 4/3/2025 11:19:59 AM, Old:1.125, New:0.5
Sample2 Changed: 4/3/2025 11:29:44 AM, Old:0.5, New:0.25
Sample2 Changed: 4/3/2025 11:39:56 AM, Old:0.25, New:0.1
Sample2 Changed: 4/3/2025 11:48:50 AM, Old:0.1, New:0.05
Sample2 Changed: 4/3/2025 11:56:15 AM, Old:0.05, New:0.025
Sample2 Changed: 4/3/2025 12:07:39 PM, Old:0.025, New:0.00125
Sample2 Changed: 4/3/2025 12:11:09 PM, Old:0.00125, New:fondo
End Method Modifications

