0,,1,,2,,3,,4,,5,,6,,7,,8,,fondo,,
Wavelength (nm),Intensity (a.u.),Wavelength (nm),Intensity (a.u.),Wavelength (nm),Intensity (a.u.),Wavelength (nm),Intensity (a.u.),Wavelength (nm),Intensity (a.u.),Wavelength (nm),Intensity (a.u.),Wavelength (nm),Intensity (a.u.),Wavelength (nm),Intensity (a.u.),Wavelength (nm),Intensity (a.u.),Wavelength (nm),Intensity (a.u.),
360,14.36542797,360,11.2399435,360,6.985426903,360,3.746676207,360,1.438676357,360,1.193459868,360,0.369094491,360,-0.1219660938,360,0.8424599767,360,0.242806837,
361.0700073,15.23715878,361.0700073,11.2650671,361.0700073,6.237726688,361.0700073,3.997648716,361.0700073,2.644285917,361.0700073,1.265822768,361.0700073,1.257545352,361.0700073,0.7334066629,361.0700073,0.4949882329,361.0700073,-0.2491901368,
362,13.70022106,362,9.765854836,362,5.828943253,362,2.57762146,362,1.760150194,362,1.829198599,362,0.1144819707,362,0.7288630009,362,1.093294501,362,1.057579279,
363.0700073,13.80757809,363.0700073,10.37756634,363.0700073,5.805515289,363.0700073,2.56598258,363.0700073,1.482833385,363.0700073,1.312022924,363.0700073,0.8819314241,363.0700073,1.284896612,363.0700073,0.7057993412,363.0700073,0.6125949621,
364,12.73743057,364,10.36152744,364,5.103738785,364,2.919052601,364,1.239297032,364,1.231665015,364,1.396648049,364,-0.3551556766,364,0.8254716992,364,1.033324718,
365.0700073,12.85046673,365.0700073,8.856502533,365.0700073,6.116876125,365.0700073,3.019393921,365.0700073,1.549701095,365.0700073,1.019137144,365.0700073,0.7148814797,365.0700073,0.3549455702,365.0700073,0,365.0700073,0.4736530483,
366,12.1563282,366,8.559360504,366,5.614115238,366,3.125,366,1.155534983,366,1.096624851,366,0.8508569598,366,0.5963029265,366,0.9943653345,366,0.8296787739,
367.0700073,11.37009621,367.0700073,8.461191177,367.0700073,5.308335304,367.0700073,3.498190641,367.0700073,0.8925583363,367.0700073,1.20992136,367.0700073,0.4935834408,367.0700073,-0.2357656509,367.0700073,0.330724299,367.0700073,0.8388256431,
368,11.46067429,368,8.056757927,368,4.649618149,368,2.228274345,368,1.25099504,368,0.3390596807,368,0.3633720875,368,-0.1184553429,368,0.803581655,368,0.737010181,
369.0700073,12.27267647,369.0700073,9.368455887,369.0700073,4.414747238,369.0700073,2.71354413,369.0700073,1.058699012,369.0700073,0,369.0700073,0,369.0700073,-0.1251721084,369.0700073,0.2409058064,369.0700073,0.464954108,
370,11.92543793,370,8.211978912,370,5.225032806,370,2.239245653,370,1.092365623,370,0.5588465333,370,0,370,-0.1197604761,370,0.5027019978,370,0.3436032534,
371.0700073,11.61550331,371.0700073,8.041356087,371.0700073,4.096495628,371.0700073,2.312842369,371.0700073,1.06382978,371.0700073,-0.2266545743,371.0700073,0.9281819463,371.0700073,0.3697313368,371.0700073,0.2456097305,371.0700073,-0.3463803232,
372,11.23335266,372,8.331506729,372,4.324078083,372,1.602380633,372,1.428571463,372,0.4749465585,372,1.203369498,372,0,372,0.1219512224,372,-0.3714250326,
373.0700073,10.62573814,373.0700073,8.49598217,373.0700073,4.515457153,373.0700073,2.050663233,373.0700073,0.6304374933,373.0700073,0.3444316983,373.0700073,0.4684937894,373.0700073,0.6053268909,373.0700073,0.4570384026,373.0700073,0.2367424369,
374,10.81916523,374,7.342144012,374,4.314477444,374,1.991798401,374,1.086169362,374,0.4822763503,374,-0.3649635017,374,0.2353494912,374,0.3410641253,374,0.2357656509,
375.0700073,10.09251499,375.0700073,7.836810112,375.0700073,4.503970623,375.0700073,2.460821152,375.0700073,1.093825936,375.0700073,0.5962318182,375.0700073,0.7142857313,375.0700073,0.2369949073,375.0700073,-0.6858710647,375.0700073,0.6963788271,
376,10.28184319,376,8.175014496,376,4.503970623,376,2.292194366,376,1.18511498,376,0.6850879192,376,-0.6279829144,376,-0.1193175018,376,0.3695491552,376,-0.2293577939,
377.0700073,9.730628014,377.0700073,8.299712181,377.0700073,5.605512142,377.0700073,1.368301034,377.0700073,0.7136060596,377.0700073,0.4753981531,377.0700073,1.283846855,377.0700073,0.1191043332,377.0700073,-0.3850102723,377.0700073,0.3633720875,
378,11.34784603,378,7.688723087,378,4.423774719,378,2.662653446,378,0.7256894112,378,0,378,0.936658442,378,1.444217205,378,1.509623885,378,0.8512707949,
379.0700073,10.08782387,379.0700073,7.699950218,379.0700073,3.895508766,379.0700073,2.240896463,379.0700073,1.444564819,379.0700073,0.8360205889,379.0700073,-0.1134301275,379.0700073,0.4911591411,379.0700073,0.244140625,379.0700073,0.3766951263,
380,10.12837124,380,7.621609688,380,5.260750294,380,2.659266949,380,1.071938992,380,0.4665267169,380,-0.8090615273,380,0.8561643958,380,-0.2392916977,380,0.7096392512,
381.0700073,8.947433472,381.0700073,7.037457466,381.0700073,3.036319017,381.0700073,2.411298752,381.0700073,1.196601629,381.0700073,-0.2309202105,381.0700073,0.4712535441,381.0700073,0.2410800308,381.0700073,-0.2435163707,381.0700073,-0.1148633063,
382,10.79591179,382,6.773538113,382,4.508058071,382,1.849283338,382,1.184553385,382,1.260167241,382,-0.1229558513,382,-0.6038647294,382,0,382,0.2482313365,
383.0700073,9.330533981,383.0700073,6.957910538,383.0700073,5.444856167,383.0700073,2.167629957,383.0700073,0.6008893251,383.0700073,0.3327786922,383.0700073,0.347866416,383.0700073,-0.4738213718,383.0700073,0.9264620543,383.0700073,0.8201522827,
384,10.17929459,384,7.648626804,384,4.572634697,384,2.809936047,384,1.533742309,384,0,384,0.4696489573,384,0.1180776954,384,-0.3648747206,384,-0.4709761143,
385.0700073,9.712145805,385.0700073,6.718287468,385.0700073,3.548196316,385.0700073,2.280638456,385.0700073,1.877273321,385.0700073,1.188354135,385.0700073,0.4634994268,385.0700073,-0.2443195879,385.0700073,0.362231344,385.0700073,0.2386634946,
386,9.065294266,386,7.315958023,386,3.784742594,386,3.188097954,386,1.323069572,386,0.2387489527,386,1.010228515,386,0.7019185424,386,0.7280670404,386,-0.1184553429,
387.0700073,10.25407314,387.0700073,8.396501541,387.0700073,5.198487759,387.0700073,3.328359842,387.0700073,2.124144554,387.0700073,1.294117689,387.0700073,0.8384237885,387.0700073,0.3678724766,387.0700073,0.6068697572,387.0700073,0.7205476165,
388,10.41028786,388,7.483629704,388,4.801499367,388,2.880115271,388,1.568911314,388,1.526358962,388,0.6294850707,388,0.9236808419,388,0.5773005486,388,0.1230617762,
389.0700073,10.06751156,389.0700073,8.53788662,389.0700073,3.803185225,389.0700073,3.259604216,389.0700073,1.816860557,389.0700073,1.347543836,389.0700073,0.976324141,389.0700073,1.044447064,389.0700073,0.5982292295,389.0700073,0.8434751034,
390,11.64399338,390,8.991578102,390,5.700712681,390,3.386141062,390,2.725441456,390,1.783378839,390,1.277732611,390,1.065971851,390,1.519179702,390,1.494023919,
391.0700073,12.68674469,391.0700073,9.801633835,391.0700073,6.240638733,391.0700073,3.96408987,391.0700073,3.023705959,391.0700073,2.495462656,391.0700073,1.398957133,391.0700073,1.853911757,391.0700073,1.361554623,391.0700073,1.969187975,
392,12.56668663,392,8.452064514,392,6.303030491,392,5.046774864,392,4.454864979,392,2.790048599,392,2.468265057,392,2.513510227,392,1.359199286,392,1.704199553,
393.0700073,13.04446411,393.0700073,9.890242577,393.0700073,6.46526432,393.0700073,4.352692604,393.0700073,5.071950912,393.0700073,3.663436413,393.0700073,3.108932257,393.0700073,3.022974491,393.0700073,3.005530119,393.0700073,2.603550196,
394,13.92926407,394,10.91912651,394,8.436783791,394,6.224309921,394,5.556212425,394,3.699136972,394,3.086800814,394,3.587776899,394,3.346880198,394,4.12583828,
395.0700073,15.26195908,395.0700073,12.17038536,395.0700073,9.13506031,395.0700073,7.459095001,395.0700073,6.414825439,395.0700073,4.176818848,395.0700073,3.526693344,395.0700073,4.219933033,395.0700073,4.172627449,395.0700073,3.652300835,
396,15.69220066,396,14.83991528,396,9.684361458,396,7.439773083,396,5.772005558,396,5.593536377,396,3.470144749,396,3.11122632,396,3.441494703,396,3.086066961,
397.0700073,16.39162827,397.0700073,13.60698509,397.0700073,10.86828136,397.0700073,8.590860367,397.0700073,6.17522192,397.0700073,4.456327915,397.0700073,4.645622253,397.0700073,3.966822863,397.0700073,4.877468586,397.0700073,3.982703686,
398,16.84801674,398,13.57053185,398,8.958837509,398,9.38086319,398,7.45013237,398,4.553946495,398,4.410537243,398,4.090739727,398,4.25376749,398,3.812569141,
399.0700073,16.91331863,399.0700073,15.1197958,399.0700073,11.08703995,399.0700073,8.978403091,399.0700073,7.106972218,399.0700073,3.598416805,399.0700073,3.177318811,399.0700073,2.901353836,399.0700073,3.510895967,399.0700073,3.755299807,
400,17.5,400,15.173172,400,10.78334141,400,9.039412498,400,6.571872234,400,4.858299732,400,3.743565559,400,3.32107687,400,2.847239494,400,2.467612505,
401.0700073,18.48855972,401.0700073,14.7896719,401.0700073,12.08387566,401.0700073,8.956253052,401.0700073,5.883031368,401.0700073,4.189944267,401.0700073,2.969473839,401.0700073,2.465179443,401.0700073,1.908169389,401.0700073,3.404478312,
402,20.14388466,402,15.71932983,402,12.44665718,402,9.28792572,402,7.098911285,402,4.094631195,402,3.396821499,402,2.910501957,402,1.90885222,402,0.9663002491,
403.0700073,20.96735764,403.0700073,15.95805359,403.0700073,14.19975853,403.0700073,10.39861298,403.0700073,6.55151844,403.0700073,4.181263447,403.0700073,2.676285744,403.0700073,0.9692270756,403.0700073,1.119263768,403.0700073,1.480567455,
404,22.89470673,404,17.78334427,404,13.38862514,404,10.69711494,404,8.125293732,404,3.73179245,404,1.59901607,404,1.480019808,404,0.8253743649,404,0.8055235744,
405.0700073,22.67059708,405.0700073,20.61131287,405.0700073,16.07639313,405.0700073,12.49851227,405.0700073,7.902807713,405.0700073,3.918099165,405.0700073,2.180496693,405.0700073,0.2459722161,405.0700073,1.214181662,405.0700073,0.9794319272,
406,25.70911217,406,24.17424774,406,16.73846054,406,15.48805332,406,9.938929558,406,3.990326643,406,0.804135561,406,1.321321368,406,0.8995116949,406,1.237470627,
407.0700073,30.13290596,407.0700073,26.65080261,407.0700073,20.49132538,407.0700073,16.75197792,407.0700073,11.82795715,407.0700073,5.438907146,407.0700073,1.513050079,407.0700073,1.112209678,407.0700073,0.6094587445,407.0700073,-0.1202935129,
408,32.75529861,408,29.23704147,408,24.1674366,408,17.0130024,408,12.97155762,408,6.174305439,408,1.466275692,408,1.040988922,408,0.6147792935,408,1.296252608,
409.0700073,36.64345932,409.0700073,33.29670334,409.0700073,27.46268654,409.0700073,21.84143829,409.0700073,15.32612514,409.0700073,5.93867445,409.0700073,1.862659931,409.0700073,0.9654839635,409.0700073,1.515151501,409.0700073,0.4899558723,
410,41.5538559,410,37.30822754,410,30.16786003,410,25.74900818,410,15.9348011,410,7.558139324,410,2.554433584,410,1.641073704,410,0.7636502385,410,-0.1238236725,
411.0700073,46.21504593,411.0700073,42.14559555,411.0700073,35.09415817,411.0700073,30.09953117,411.0700073,19.71762466,411.0700073,8.955571175,411.0700073,3.176096916,411.0700073,1.438503981,411.0700073,0.9672349095,411.0700073,0.6158393621,
412,50.29955292,412,46.92594147,412,38.32630157,412,30.48180962,412,22.29485321,412,10.9731102,412,3.201328039,412,0.3604469597,412,0.9120966792,412,-0.2520478964,
413.0700073,56.00658798,413.0700073,55.46180344,413.0700073,45.70653915,413.0700073,37.26254272,413.0700073,25.60404015,413.0700073,11.15197468,413.0700073,4.287639141,413.0700073,1.639920354,413.0700073,0.868055582,413.0700073,0.1227445751,
414,63.71595001,414,62.82544708,414,50.68274307,414,41.38606262,414,26.97119331,414,12.22953987,414,4.380628109,414,1.773468971,414,0.9803922176,414,0.4828002453,
415.0700073,71.38704681,415.0700073,71.15090179,415.0700073,58.30622864,415.0700073,49.22559738,415.0700073,31.86481476,415.0700073,15.06316853,415.0700073,4.179104805,415.0700073,1.985981345,415.0700073,1.071428537,415.0700073,1.276976109,
416,80.95128632,416,77.79598999,416,65.18321228,416,53.8777504,416,34.29286575,416,16.2402153,416,4.958487034,416,2.700711966,416,0.9611918926,416,0.8846202493,
417.0700073,91.76950073,417.0700073,87.70685577,417.0700073,73.94365692,417.0700073,61.92136383,417.0700073,40.9865799,417.0700073,18.28410721,417.0700073,6.854531765,417.0700073,3.100775242,417.0700073,1.181753755,417.0700073,0.9002057314,
418,99.31829071,418,99.59183502,418,82.77796936,418,69.39439392,418,44.69078064,418,19.9198494,418,7.300173283,418,2.762762785,418,1.593137264,418,1.87341094,
419.0700073,112.9772797,419.0700073,109.0658112,419.0700073,92.66077423,419.0700073,77.01136017,419.0700073,51.5062027,419.0700073,22.96425056,419.0700073,8.227848053,419.0700073,2.487871647,419.0700073,0.9796718359,419.0700073,-0.2511300743,
420,125,420,120.5492783,420,102.6581116,420,87.53125763,420,56.58548355,420,25.79064178,420,7.238375664,420,3.680530071,420,2.027626276,420,0.6238303185,
421.0599976,138.4206848,421.0599976,134.3977203,421.0599976,114.5720215,421.0599976,100.0826111,421.0599976,64.87751007,421.0599976,29.98065758,421.0599976,9.692671776,421.0599976,3.146176338,421.0599976,2.00211978,421.0599976,-0.1205109656,
421.9599915,151.8262177,421.9599915,147.3251953,421.9599915,129.7928467,421.9599915,108.1364212,421.9599915,73.08890533,421.9599915,33.00859833,421.9599915,11.56138229,421.9599915,4.868549347,421.9599915,1.83083117,421.9599915,0.2508780658,
423.0299988,163.9097748,423.0299988,164.0043793,423.0299988,142.6080933,423.0299988,118.4009399,423.0299988,80.36906433,423.0299988,36.70174026,423.0299988,12.87093258,423.0299988,5.327521324,423.0299988,2.210587502,423.0299988,0.6128953099,
423.9299927,179.3809357,423.9299927,178.3200378,423.9299927,154.4665833,423.9299927,128.8685303,423.9299927,86.38807678,423.9299927,38.75305557,423.9299927,12.81431293,423.9299927,5.543656349,423.9299927,1.621308565,423.9299927,-0.2640961409,
425,200.4759827,425,197.8700104,425,173.7032471,425,140.914566,425,94.05458069,425,43.26041794,425,15.59791946,425,6.708250046,425,3.654694319,425,0,
426.0599976,219.3247986,426.0599976,219.091568,426.0599976,188.5392914,426.0599976,159.3881378,426.0599976,104.1851044,426.0599976,46.88448715,426.0599976,15.90937901,426.0599976,7.613292694,426.0599976,2.994012117,426.0599976,0.3749062717,
426.9599915,235.4960632,426.9599915,231.4526367,426.9599915,205.0465851,426.9599915,167.4629517,426.9599915,114.1304398,426.9599915,53.56098557,426.9599915,18.0786953,426.9599915,7.845433235,426.9599915,2.623107195,426.9599915,-0.2525890172,
428.0299988,253.4081879,428.0299988,252.6797638,428.0299988,220.6780853,428.0299988,183.3354187,428.0299988,124.5965881,428.0299988,58.85914993,428.0299988,20.53436089,428.0299988,8.783539772,428.0299988,3.674219131,428.0299988,0.1241619065,
428.9299927,273.5761108,428.9299927,267.7966003,428.9299927,231.6873322,428.9299927,198.3329163,428.9299927,134.3423767,428.9299927,61.89437866,428.9299927,19.57684708,428.9299927,9.976976395,428.9299927,2.272210836,428.9299927,0.7531065345,
430,292.152832,430,292.1604004,430,257.3894653,430,213.9665527,430,139.6579285,430,66.93377686,430,23.61922836,430,9.558823586,430,3.278688431,430,0,
431.0700073,316.3016968,431.0700073,315.5747375,431.0700073,277.9422607,431.0700073,232.9573364,431.0700073,156.0189056,431.0700073,74.26099396,431.0700073,26.16776657,431.0700073,10.18459511,431.0700073,4.384952545,431.0700073,0.3883495331,
432,334.4351501,432,332.4378052,432,291.0377502,432,246.3083954,432,162.7114563,432,79.09207916,432,26.15328598,432,10.2635231,432,4.199160099,432,0.1227295026,
433.0700073,358.0261536,433.0700073,357.913269,433.0700073,315.7183228,433.0700073,262.5372314,433.0700073,173.8253326,433.0700073,85.35986328,433.0700073,30.95238113,433.0700073,11.80957031,433.0700073,4.463747025,433.0700073,0.724462688,
434,379.1512756,434,382.8181152,434,329.6739807,434,274.888031,434,186.2986755,434,90.93034363,434,31.75895691,434,12.17828083,434,4.704134464,434,0.6137228608,
435.0700073,398.3110352,435.0700073,404.260437,435.0700073,353.6148987,435.0700073,291.2251282,435.0700073,194.8638763,435.0700073,96.24719238,435.0700073,34.30239487,435.0700073,13.58462906,435.0700073,4.74608469,435.0700073,0.1268391609,
436,412.9700928,436,422.4024658,436,371.8365479,436,313.4983521,436,210.2507935,436,101.3676605,436,36.51587296,436,14.2976284,436,5.310987949,436,-0.3803245425,
437.0700073,444.4315186,437.0700073,446.3178711,437.0700073,389.9636536,437.0700073,331.7479248,437.0700073,224.1399994,437.0700073,108.1580734,437.0700073,39.61796951,437.0700073,15.05536842,437.0700073,6.259780884,437.0700073,-0.1222643331,
438,467.0517578,438,465.6138916,438,405.7090454,438,347.3671875,438,230.2485657,438,114.9911804,438,40.61708832,438,15.67594719,438,5.852143764,438,0.2461841553,
439.0700073,493.0374756,439.0700073,489.0263977,439.0700073,426.0004883,439.0700073,359.0273438,439.0700073,245.5585327,439.0700073,119.5270386,439.0700073,44.07468414,439.0700073,16.17282486,439.0700073,7.508939266,439.0700073,0,
440,503.9922485,440,507.199585,440,439.1931458,440,373.311676,440,253.1231689,440,125.1935654,440,44.68584061,440,17.42708588,440,6.519866943,440,0.504922986,
441.0599976,517.819458,441.0599976,537.8840332,441.0599976,465.9928589,441.0599976,398.2502441,441.0599976,267.6620483,441.0599976,130.3067474,441.0599976,46.40991211,441.0599976,19.10675812,441.0599976,7.651202202,441.0599976,0.6088650823,
441.9599915,549.6359253,441.9599915,559.9817505,441.9599915,482.8034668,441.9599915,411.6293335,441.9599915,283.4894714,441.9599915,138.1341705,441.9599915,51.10336685,441.9599915,18.79746056,441.9599915,7.196029663,441.9599915,0.3656307161,
443.0299988,577.8717651,443.0299988,584.1159058,443.0299988,506.9735107,443.0299988,432.2745361,443.0299988,290.8864136,443.0299988,141.1010895,443.0299988,52.36875534,443.0299988,21.013134,443.0299988,7.701863766,443.0299988,0,
443.9299927,594.173584,443.9299927,598.3417358,443.9299927,524.5723877,443.9299927,449.9681396,443.9299927,300.5035706,443.9299927,149.0190887,443.9299927,55.90290451,443.9299927,22.14393616,443.9299927,7.442322254,443.9299927,0.8732535243,
445,629.776001,445,626.7409058,445,542.7530518,445,457.8475952,445,316.9005432,445,157.7635193,445,57.61118698,445,22.41035843,445,8.012208939,445,0.3723008335,
446.0599976,649.7227783,446.0599976,640.817749,446.0599976,568.093811,446.0599976,484.2918701,446.0599976,327.5608521,446.0599976,162.5639801,446.0599976,59.19504547,446.0599976,22.82453728,446.0599976,8.878741264,446.0599976,0.8651587963,
446.9599915,678.0869751,446.9599915,665.0804443,446.9599915,579.7453003,446.9599915,496.7576294,446.9599915,338.5645142,446.9599915,169.5827637,446.9599915,62.69475174,446.9599915,24.77007866,446.9599915,7.82414341,446.9599915,0.3689129353,
448.0299988,691.3043213,448.0299988,690.7833252,448.0299988,608.1739502,448.0299988,517.5147095,448.0299988,351.9663391,448.0299988,177.5803223,448.0299988,63.17917252,448.0299988,24.5163002,448.0299988,9.24591732,448.0299988,0.122309193,
448.9299927,699.3206787,448.9299927,704.1681519,448.9299927,621.0473022,448.9299927,530.3522339,448.9299927,363.0319214,448.9299927,180.2225037,448.9299927,66.54457092,448.9299927,27.97202682,448.9299927,9.646302223,448.9299927,-0.6153845787,
450,724.7460327,450,736.9383545,450,642.8308716,450,535.5927734,450,368.1737366,450,188.4111176,450,68.26863861,450,28.28557205,450,10.20798779,450,1.095556855,
451.0599976,751.7713623,451.0599976,744.3545532,451.0599976,664.4554443,451.0599976,561.9485474,451.0599976,383.2990112,451.0599976,190.9709778,451.0599976,71.94504547,451.0599976,28.45073891,451.0599976,10.77612305,451.0599976,0.3717472255,
451.9599915,765.22229,451.9599915,774.1707764,451.9599915,668.9759521,451.9599915,563.8233643,451.9599915,395.1134338,451.9599915,196.0072632,451.9599915,75.04488373,451.9599915,30.49680138,451.9599915,10.60838413,451.9599915,1.46609652,
453.0299988,778.8753052,453.0299988,788.5770264,453.0299988,690.8328247,453.0299988,576.9230957,453.0299988,394.8989563,453.0299988,198.9434509,453.0299988,75.86288452,453.0299988,29.63789749,453.0299988,11.29234695,453.0299988,0.9727626443,
453.9299927,793.5979004,453.9299927,794.5708618,453.9299927,706.27771,453.9299927,599.6590576,453.9299927,412.6084595,453.9299927,202.9994049,453.9299927,75.13980103,453.9299927,31.51364708,453.9299927,11.77470303,453.9299927,0.7794232368,
455,813.109314,455,831.2324219,455,715.979126,455,614.3847656,455,417.5263977,455,214.6240845,455,76.83769226,455,31.41041565,455,11.4869175,455,0.3825066984,
456.0599976,821.1467285,456.0599976,843.0452271,456.0599976,719.2855835,456.0599976,613.2857056,456.0599976,425.2647095,456.0599976,216.2804413,456.0599976,80.35497284,456.0599976,30.93552017,456.0599976,11.4243145,456.0599976,0.5393742919,
456.9599915,854.4379883,456.9599915,851.8563232,456.9599915,737.3536377,456.9599915,626.597229,456.9599915,435.315094,456.9599915,216.0051117,456.9599915,81.50896454,456.9599915,32.08156967,456.9599915,11.72318077,456.9599915,1.08708775,
458.0299988,863.5048828,458.0299988,867.0007935,458.0299988,740.7267456,458.0299988,635.8002319,458.0299988,439.9607544,458.0299988,221.0140686,458.0299988,81.36257172,458.0299988,32.56043243,458.0299988,11.09604263,458.0299988,0.6428387761,
458.9299927,869.7030029,458.9299927,871.8583984,458.9299927,767.2780151,458.9299927,645.8555908,458.9299927,450.7466125,458.9299927,228.7589417,458.9299927,85.9458847,458.9299927,35.04970551,458.9299927,13.35400105,458.9299927,1.100782752,
460,884.7937012,460,890.2579346,460,770.0145874,460,660.151123,460,449.5029907,460,230.0640564,460,85.89181519,460,33.84499359,460,13.15154457,460,1.494395971,
461.0599976,885.1707153,461.0599976,902.4096069,461.0599976,790.5004272,461.0599976,657.9970703,461.0599976,459.7218933,461.0599976,231.3007507,461.0599976,87.7723999,461.0599976,34.26255798,461.0599976,13.46011353,461.0599976,1.87687695,
461.9599915,894.8538208,461.9599915,905.00354,461.9599915,784.3359985,461.9599915,667.9117432,461.9599915,469.3422546,461.9599915,234.5354767,461.9599915,87.45201874,461.9599915,35.90258408,461.9599915,12.26993847,461.9599915,1.698410749,
463.0299988,900.7157593,463.0299988,915.1637573,463.0299988,795.3961182,463.0299988,673.9533081,463.0299988,473.1062012,463.0299988,237.9102936,463.0299988,88.87316895,463.0299988,36.19047546,463.0299988,13.0718956,463.0299988,1.021319985,
463.9299927,907.234314,463.9299927,925.1592407,463.9299927,806.6777344,463.9299927,679.5087891,463.9299927,469.35672,463.9299927,243.083252,463.9299927,92.35591888,463.9299927,36.91529846,463.9299927,14.47661495,463.9299927,1.565133691,
465,917.8619385,465,925.4421997,465,811.1984253,465,697.5388184,465,478.5466309,465,239.6251678,465,93.03736115,465,35.64584351,465,13.92654705,465,1.531393647,
466.0599976,919.222229,466.0599976,920.8607178,466.0599976,829.1833496,466.0599976,683.0601196,466.0599976,474.1885376,466.0599976,241.3393555,466.0599976,92.25598145,466.0599976,37.83055878,466.0599976,13.56305027,466.0599976,0.6094587445,
466.9599915,917.1747437,466.9599915,927.0858765,466.9599915,822.7444458,466.9599915,693.993103,466.9599915,475.4060059,466.9599915,245.7596436,466.9599915,93.61701965,466.9599915,39.59912109,466.9599915,14.32360744,466.9599915,1.089852333,
468.0299988,920.3110962,468.0299988,929.1601563,468.0299988,813.137085,468.0299988,694.9974976,468.0299988,473.6386108,468.0299988,247.537674,468.0299988,93.84304047,468.0299988,38.2061882,468.0299988,14.90349388,468.0299988,1.723289013,
468.9299927,926.6364746,468.9299927,929.1621704,468.9299927,813.7078247,468.9299927,692.6989136,468.9299927,479.2770996,468.9299927,240.8395996,468.9299927,90.29065704,468.9299927,39.15151596,468.9299927,14.59762955,468.9299927,1.609109998,
470,920.0334473,470,932.7293091,470,823.7869873,470,701.09375,470,485.2888184,470,244.5638885,470,94.44644928,470,37.56476593,470,14.74997044,470,0.6153845787,
471.0599976,924.2776489,471.0599976,921.6757813,471.0599976,819.6620483,471.0599976,687.7149658,471.0599976,490.5190735,471.0599976,241.8772583,471.0599976,92.79489136,471.0599976,37.69889832,471.0599976,14.23444939,471.0599976,0.628772676,
471.9599915,927.5737915,471.9599915,929.0048218,471.9599915,814.651062,471.9599915,691.3793335,471.9599915,479.9949341,471.9599915,248.7738953,471.9599915,93.47930908,471.9599915,38.90562439,471.9599915,12.50781727,471.9599915,2.331288338,
473.0299988,924.2441406,473.0299988,922.1571655,473.0299988,827.9361572,473.0299988,688.7597656,473.0299988,472.8426819,473.0299988,240.6456299,473.0299988,94.62519836,473.0299988,38.57855606,473.0299988,14.95958519,473.0299988,2.178385735,
473.9299927,916.1755981,473.9299927,912.3936768,473.9299927,818.7736816,473.9299927,689.1288452,473.9299927,470.4264221,473.9299927,243.2659912,473.9299927,94.5157547,473.9299927,39.31974411,473.9299927,15.03665924,473.9299927,1.925792813,
475,911.9990234,475,913.074707,475,815.7056885,475,693.3884277,475,468.103241,475,243.6163788,475,92.88256073,475,40.00496674,475,14.01637268,475,1.435578465,
476.0599976,909.135498,476.0599976,898.3540649,476.0599976,804.5498047,476.0599976,677.9335938,476.0599976,470.9606628,476.0599976,238.5422974,476.0599976,94.76644897,476.0599976,38.79941177,476.0599976,14.61802387,476.0599976,0.4948045313,
476.9599915,913.7686768,476.9599915,903.1016846,476.9599915,800,476.9599915,677.3049927,476.9599915,468.7463684,476.9599915,242.3286896,476.9599915,93.38852692,476.9599915,37.9853363,476.9599915,14.80384922,476.9599915,2.11838007,
478.0299988,899.0060425,478.0299988,897.859436,478.0299988,795.4464722,478.0299988,684.3053589,478.0299988,463.3572693,478.0299988,241.4719543,478.0299988,93.79798889,478.0299988,37.52814484,478.0299988,13.62169933,478.0299988,1.602564096,
478.9299927,901.1251831,478.9299927,891.7619019,478.9299927,787.2219849,478.9299927,676.8850708,478.9299927,467.4960327,478.9299927,241.411438,478.9299927,94.66849518,478.9299927,39.58105087,478.9299927,15.19170475,478.9299927,1.003512263,
480,895.0548096,480,883.015686,480,783.5758057,480,668.0380859,480,464.4059143,480,239.8958588,480,92.89685059,480,37.96343613,480,15.10939217,480,1.474382639,
481.0599976,876.2805176,481.0599976,864.963501,481.0599976,777.4242554,481.0599976,668.1779175,481.0599976,452.5367432,481.0599976,233.010849,481.0599976,89.96714783,481.0599976,38.40627289,481.0599976,14.12531757,481.0599976,0.8564786315,
481.9599915,873.2666626,481.9599915,873.1165161,481.9599915,775.0178223,481.9599915,656.6428223,481.9599915,456.1833496,481.9599915,235.2522278,481.9599915,89.89282227,481.9599915,36.33174515,481.9599915,14.63475132,481.9599915,2.49442029,
483.0299988,865.5853271,483.0299988,867.2817383,483.0299988,762.5882568,483.0299988,648.4538574,483.0299988,449.8216553,483.0299988,232.2786255,483.0299988,89.94454193,483.0299988,36.54224014,483.0299988,13.7478323,483.0299988,1.609309196,
483.9299927,849.8000488,483.9299927,847.2650146,483.9299927,757.2731934,483.9299927,652.1106567,483.9299927,446.1442871,483.9299927,229.216156,483.9299927,89.25318909,483.9299927,38.08198547,483.9299927,15.58504772,483.9299927,1.36493361,
485,834.2338257,485,840.454834,485,754.5704346,485,634.9660034,485,441.2438354,485,226.0827026,485,87.22036743,485,36.87423706,485,13.87616158,485,1.832620621,
486.0599976,830.5670166,486.0599976,828.1625366,486.0599976,740.588501,486.0599976,622.7766724,486.0599976,433.5308228,486.0599976,226.6191254,486.0599976,86.82775879,486.0599976,35.02226639,486.0599976,14.2739172,486.0599976,0.9945300221,
486.9599915,818.6774292,486.9599915,821.298584,486.9599915,735.3435669,486.9599915,616.2623291,486.9599915,436.2054138,486.9599915,222.8202362,486.9599915,86.00161743,486.9599915,36.19071198,486.9599915,13.33659649,486.9599915,2.323306322,
488.0299988,819.9655762,488.0299988,811.9778442,488.0299988,718.9494629,488.0299988,612.2473145,488.0299988,423.4664001,488.0299988,219.8759308,488.0299988,85.57975006,488.0299988,35.85505676,488.0299988,13.08411217,488.0299988,2.689486504,
488.9299927,801.1759033,488.9299927,805.644104,488.9299927,706.9854736,488.9299927,606.2907104,488.9299927,421.1686707,488.9299927,218.727417,488.9299927,85.75495148,488.9299927,34.75733185,488.9299927,14.04627037,488.9299927,1.817080498,
490,791.0942383,490,794.4715576,490,699.484314,490,590.5259399,490,415.5059814,490,217.1227875,490,84.88943481,490,36.57795334,490,14.83679581,490,2.602552891,
491.0400085,775.7974854,491.0400085,776.8327637,491.0400085,684.3925171,491.0400085,596.135498,491.0400085,404.5136719,491.0400085,212.414505,491.0400085,82.45549774,491.0400085,34.76064682,491.0400085,13.88888931,491.0400085,1.896333814,
491.9400024,771.4217529,491.9400024,775.5671997,491.9400024,681.7185669,491.9400024,583.2548218,491.9400024,402.1967163,491.9400024,209.5022125,491.9400024,81.47452545,491.9400024,34.65722275,491.9400024,12.55070972,491.9400024,1.855746627,
492.980011,754.0317993,492.980011,765.1615601,492.980011,668.7768555,492.980011,574.3341675,492.980011,389.8999634,492.980011,208.6006165,492.980011,82.68090057,492.980011,34.0085907,492.980011,12.99647808,492.980011,2.583661318,
494.019989,744.9234009,494.019989,746.9462891,494.019989,654.6560669,494.019989,558.3532715,494.019989,386.2522583,494.019989,204.4477234,494.019989,81.31786346,494.019989,33.1159668,494.019989,14.32129574,494.019989,2.301790237,
495.0700073,722.5544434,495.0700073,733.6550293,495.0700073,646.9161377,495.0700073,560.5133667,495.0700073,384.9106445,495.0700073,202.4691467,495.0700073,79.32603455,495.0700073,32.80757141,495.0700073,14.21618843,495.0700073,2.276463985,
495.9700012,724.1378784,495.9700012,725.9971924,495.9700012,640.0892944,495.9700012,539.6785889,495.9700012,376.3284912,495.9700012,199.6605682,495.9700012,77.44988251,495.9700012,33.38315582,495.9700012,12.58178139,495.9700012,1.268713474,
497.0100098,700.9703979,497.0100098,710.970459,497.0100098,625.4060059,497.0100098,530.5757446,497.0100098,370.8156738,497.0100098,194.693573,497.0100098,76.41921234,497.0100098,31.76130676,497.0100098,13.60953903,497.0100098,2.135410309,
498.0499878,690.4054565,498.0499878,699.5085449,498.0499878,615.4129639,498.0499878,524.9157715,498.0499878,364.8099365,498.0499878,189.8975525,498.0499878,76.93212128,498.0499878,32.41218948,498.0499878,12.09725761,498.0499878,0.9779950976,
498.9500122,676.1370239,498.9500122,681.6608887,498.9500122,605.7428589,498.9500122,516.0054321,498.9500122,351.5672913,498.9500122,189.7853851,498.9500122,75.50023651,498.9500122,30.4337101,498.9500122,13.95955658,498.9500122,1.852080464,
500,667.2498169,500,671.499939,500,595.6674194,500,508.0655823,500,347.8312073,500,183.9296265,500,72.53885651,500,31.90031242,500,12.45640182,500,2.469745636,
501.0599976,660.7909546,501.0599976,664.8005981,501.0599976,581.460022,501.0599976,489.7210083,501.0599976,340.7487183,501.0599976,179.7155304,501.0599976,70.74447632,501.0599976,30.68526459,501.0599976,11.0933075,501.0599976,3.483483553,
501.9599915,638.6300049,501.9599915,645.8660278,501.9599915,566.6821899,501.9599915,487.5332642,501.9599915,334.5785828,501.9599915,175.9683228,501.9599915,68.43186951,501.9599915,29.78396988,501.9599915,11.97076607,501.9599915,1.905215502,
503.0299988,625.6616821,503.0299988,635.7076416,503.0299988,556.0570068,503.0299988,480.9225769,503.0299988,334.4089966,503.0299988,175.4691162,503.0299988,69.338974,503.0299988,28.42954826,503.0299988,11.9496851,503.0299988,2.082312584,
503.9299927,612.7352295,503.9299927,627.5403442,503.9299927,548.9176636,503.9299927,469.0891113,503.9299927,326.9829407,503.9299927,173.6677094,503.9299927,67.35881805,503.9299927,29.32515335,503.9299927,11.94067383,503.9299927,2.540327549,
505,603.8286743,505,616.3285522,505,532.8673096,505,456.9918823,505,318.3877869,505,167.2350616,505,67.53407288,505,29.14909554,505,11.94786358,505,2.400672197,
506.0599976,591.9319458,506.0599976,595.4777222,506.0599976,528.2819824,506.0599976,445.3665466,506.0599976,312.2094421,506.0599976,162.0221863,506.0599976,65.53063202,506.0599976,28.72679901,506.0599976,10.89952374,506.0599976,1.905972004,
506.9599915,581.050354,506.9599915,587.7368164,506.9599915,513.7875977,506.9599915,445.5116272,506.9599915,309.0863647,506.9599915,164.2874756,506.9599915,63.49206543,506.9599915,26.5039444,506.9599915,10.8806963,506.9599915,2.689893484,
508.0299988,571.4285889,508.0299988,576.4594727,508.0299988,510.6919861,508.0299988,431.3190002,508.0299988,303.2059631,508.0299988,156.5000763,508.0299988,63.30918503,508.0299988,26.52029228,508.0299988,11.62203121,508.0299988,2.11521697,
508.9299927,554.4145508,508.9299927,565.1265259,508.9299927,495.2985535,508.9299927,423.8153076,508.9299927,292.9539795,508.9299927,152.6782532,508.9299927,62.17741013,508.9299927,25.58332253,508.9299927,11.48452568,508.9299927,2.543912649,
510,544.0463257,510,557.5889282,510,483.3864136,510,416.146759,510,286.6195374,510,151.7285614,510,59.50393677,510,26.60922432,510,11.19835186,510,2.781289339,
511.0400085,532.9327393,511.0400085,538.6967773,511.0400085,466.4036255,511.0400085,411.9133606,511.0400085,281.6867676,511.0400085,146.3597717,511.0400085,60.50832367,511.0400085,25.31484604,511.0400085,10.74481106,511.0400085,2.849355698,
511.9400024,520.8999634,511.9400024,532.0062256,511.9400024,464.8609924,511.9400024,397.6455994,511.9400024,277.3109436,511.9400024,146.2668304,511.9400024,59.88673401,511.9400024,24.81915665,511.9400024,10.58982849,511.9400024,3.048408747,
512.9799805,508.9729919,512.9799805,517.3563232,512.9799805,451.4015198,512.9799805,390.9124146,512.9799805,271.0314636,512.9799805,142.6073914,512.9799805,54.00653076,512.9799805,23.63786888,512.9799805,9.288682938,512.9799805,3.149987936,
514.0200195,505.2216187,514.0200195,507.4216003,514.0200195,442.6229553,514.0200195,382.1686096,514.0200195,265.7936096,514.0200195,140.3293152,514.0200195,54.78604889,514.0200195,23.70352554,514.0200195,11.0986414,514.0200195,3.296703339,
515.0700073,486.4168701,515.0700073,489.3668213,515.0700073,433.2116699,515.0700073,368.8486023,515.0700073,259.5484009,515.0700073,136.0743866,515.0700073,55.57632446,515.0700073,23.90641022,515.0700073,9.534563065,515.0700073,3.024955988,
515.9699707,477.2342224,515.9699707,476.7033691,515.9699707,428.3056335,515.9699707,364.341095,515.9699707,254.7193451,515.9699707,135.2147369,515.9699707,54.26164246,515.9699707,21.67487717,515.9699707,9.926189423,515.9699707,2.167537928,
517.0100098,465.0655212,517.0100098,469.5785828,517.0100098,413.043457,517.0100098,355.9462891,517.0100098,249.8243866,517.0100098,132.3348846,517.0100098,53.27373886,517.0100098,22.23625946,517.0100098,10.24015617,517.0100098,2.502979755,
518.0499878,457.2555542,518.0499878,463.639679,518.0499878,400.9760742,518.0499878,345.4938354,518.0499878,243.1349487,518.0499878,129.61586,518.0499878,50.85586929,518.0499878,22.42584991,518.0499878,9.783538818,518.0499878,3.573792219,
518.9500122,443.1738586,518.9500122,444.0394897,518.9500122,386.2335205,518.9500122,336.1435547,518.9500122,238.4288177,518.9500122,127.9913025,518.9500122,49.84196091,518.9500122,22.24431419,518.9500122,10.22927666,518.9500122,2.815866947,
520,429.8622131,520,435.4221497,520,382.7954102,520,331.4884644,520,229.0252075,520,121.2865219,520,50.3424263,520,22.00124168,520,10.04464245,520,2.986144304,
521.039978,424.0849304,521.039978,431.4057617,521.039978,378.8240967,521.039978,319.1755066,521.039978,228.2902832,521.039978,118.7902298,521.039978,49.24710083,521.039978,20.79494667,521.039978,9.523809433,521.039978,3.182764053,
521.9400024,412.907135,521.9400024,420.2446594,521.9400024,364.6540222,521.9400024,313.4781189,521.9400024,218.2064972,521.9400024,119.7916641,521.9400024,46.76839066,521.9400024,21.3782692,521.9400024,10.21757412,521.9400024,2.450079679,
522.9799805,407.9596252,522.9799805,407.3129272,522.9799805,357.6264954,522.9799805,304.9559937,522.9799805,216.5854797,522.9799805,113.6253052,522.9799805,45.0819664,522.9799805,19.65662956,522.9799805,9.642223358,522.9799805,3.168969393,
524.0200195,395.7280579,524.0200195,397.1513062,524.0200195,349.0612488,524.0200195,298.4681702,524.0200195,207.3527679,524.0200195,112.1909256,524.0200195,43.87878799,524.0200195,19.27326202,524.0200195,9.681528091,524.0200195,2.518891573,
525.0700073,381.8989563,525.0700073,387.2309875,525.0700073,340.8819885,525.0700073,290.8285828,525.0700073,202.7695313,525.0700073,105.3335114,525.0700073,42.8571434,525.0700073,19.86673355,525.0700073,8.544921875,525.0700073,3.480422497,
525.9699707,371.5377197,525.9699707,373.4735718,525.9699707,335.5416565,525.9699707,285.9407349,525.9699707,196.1267548,525.9699707,107.1517258,525.9699707,41.60190964,525.9699707,19.07968521,525.9699707,8.292078972,525.9699707,2.318486691,
527.0100098,359.6678772,527.0100098,365.9349365,527.0100098,324.2471313,527.0100098,273.4364929,527.0100098,192.066803,527.0100098,103.6852036,527.0100098,41.79529953,527.0100098,19.103508,527.0100098,8.836524963,527.0100098,3.410159826,
528.0499878,353.4308167,528.0499878,363.2209473,528.0499878,318.8615417,528.0499878,268.8792725,528.0499878,189.8423462,528.0499878,100.3208313,528.0499878,43.23871231,528.0499878,18.061409,528.0499878,8,528.0499878,3.29030633,
528.9500122,337.9425354,528.9500122,349.9411011,528.9500122,310.0191345,528.9500122,264.6534424,528.9500122,186.4555817,528.9500122,97.93630219,528.9500122,40.20656586,528.9500122,17.3997097,528.9500122,8.901704788,528.9500122,3.249488592,
530,330.6257629,530,336.6928406,530,298.8409729,530,257.4662781,530,176.6686707,530,95.05192566,530,39.1554718,530,17.34248352,530,7.52250576,530,1.399847388,
531.039978,326.7247314,531.039978,328.225708,531.039978,285.1980896,531.039978,249.4771729,531.039978,174.6478882,531.039978,91.58692169,531.039978,37.68521881,531.039978,17.11822701,531.039978,7.929625034,531.039978,3.397936106,
531.9400024,319.6784668,531.9400024,317.8629761,531.9400024,282.4446411,531.9400024,243.1831512,531.9400024,170.5502014,531.9400024,90.5359726,531.9400024,37.28313065,531.9400024,16.61884308,531.9400024,8.388848305,531.9400024,2.847527742,
532.9799805,304.5161438,532.9799805,313.6427612,532.9799805,278.3245544,532.9799805,237.8048706,532.9799805,165.7362518,532.9799805,86.89424133,532.9799805,35.15625,532.9799805,15.54870224,532.9799805,6.785097599,532.9799805,3.044696093,
534.0200195,301.0323792,534.0200195,307.9672546,534.0200195,272.3970947,534.0200195,228.3219757,534.0200195,160.2395172,534.0200195,84.11987305,534.0200195,34.50320435,534.0200195,15.81809139,534.0200195,7.214828014,534.0200195,1.727968454,
535.0700073,287.1734009,535.0700073,298.4201355,535.0700073,258.6858521,535.0700073,221.0499268,535.0700073,158.646347,535.0700073,83.33333588,535.0700073,34.50754929,535.0700073,14.84789944,535.0700073,6.943583488,535.0700073,2.09747076,
535.9699707,289.1760864,535.9699707,293.4980469,535.9699707,259.0427246,535.9699707,221.0317841,535.9699707,152.6490936,535.9699707,80.37797546,535.9699707,33.17061234,535.9699707,14.01197624,535.9699707,7.16890955,535.9699707,2.172523975,
537.0100098,278.1045227,537.0100098,284.7715149,537.0100098,253.148468,537.0100098,214.8334503,537.0100098,149.375,537.0100098,80.38977051,537.0100098,31.91620445,537.0100098,14.51593113,537.0100098,5.761106014,537.0100098,2.719854832,
538.0499878,266.4458008,538.0499878,275.3319397,538.0499878,240.0695038,538.0499878,207.8481598,538.0499878,142.3973236,538.0499878,76.75881195,538.0499878,32.45411301,538.0499878,13.33493519,538.0499878,8.352031708,538.0499878,3.128128052,
538.9500122,262.7990112,538.9500122,263.8131409,538.9500122,233.6348419,538.9500122,204.9719696,538.9500122,141.5263367,538.9500122,75.94476318,538.9500122,30.99099159,538.9500122,14.18186188,538.9500122,6.735996246,538.9500122,2.341343164,
540,255.4506378,540,260.0663452,540,227.5364075,540,193.9866638,540,137.3684845,540,72.80435944,540,30.55214691,540,14.26886749,540,6.399999619,540,2.212389469,
541.039978,248.9890289,541.039978,250.3748169,541.039978,226.3563995,541.039978,190.6378937,541.039978,136.1074524,541.039978,68.96129608,541.039978,29.43254089,541.039978,12.9636755,541.039978,5.910023212,541.039978,3.364980221,
541.9400024,241.1133881,541.9400024,246.2960815,541.9400024,217.0711212,541.9400024,189.0761414,541.9400024,132.2029877,541.9400024,70.32672882,541.9400024,28.90514374,541.9400024,13.62169933,541.9400024,6.415587425,541.9400024,2.617178202,
542.9799805,235.7151031,542.9799805,239.1465149,542.9799805,210.1271973,542.9799805,178.5624237,542.9799805,127.7254639,542.9799805,66.82692719,542.9799805,27.94314194,542.9799805,13.52998543,542.9799805,6.687696934,542.9799805,2.678680182,
544.0200195,230.5799713,544.0200195,232.4498596,544.0200195,209.4938354,544.0200195,176.2736206,544.0200195,119.6214447,544.0200195,65.89724731,544.0200195,27.15255547,544.0200195,12.55444527,544.0200195,6.054131031,544.0200195,2.211574078,
545.0700073,222.5595551,545.0700073,225.5630493,545.0700073,199.5462189,545.0700073,172.4736481,545.0700073,118.660408,545.0700073,63.68497849,545.0700073,26.26506042,545.0700073,12.84769821,545.0700073,6.433166504,545.0700073,2.023011684,
545.9699707,214.5011597,545.9699707,223.4657593,545.9699707,195.2874298,545.9699707,165.8896637,545.9699707,117.75811,545.9699707,63.22048569,545.9699707,25.2654705,545.9699707,12.19977188,545.9699707,6.810301781,545.9699707,2.348868847,
547.0100098,209.6792908,547.0100098,213.6275482,547.0100098,188.786377,547.0100098,162.8437653,547.0100098,111.5547485,547.0100098,60.80334091,547.0100098,26.64129448,547.0100098,11.76323414,547.0100098,6.123469353,547.0100098,2.176805019,
548.0499878,206.1794434,548.0499878,206.6366882,548.0499878,180.9063416,548.0499878,155.9532471,548.0499878,110.0941467,548.0499878,57.54018784,548.0499878,24.66060638,548.0499878,11.40539837,548.0499878,6.073597908,548.0499878,1.970200777,
548.9500122,198.2600708,548.9500122,201.3855133,548.9500122,177.7615204,548.9500122,154.3745575,548.9500122,107.4572144,548.9500122,57.70170975,548.9500122,24.71346855,548.9500122,11.5635376,548.9500122,5.755755424,548.9500122,3.069744587,
550,194.2241669,550,196.9625092,550,169.5497589,550,149.7895508,550,104.0841599,550,55.79611588,550,23.40528679,550,11.09034252,550,5.402009964,550,2.505604744,
551.039978,188.0863647,551.039978,190.694931,551.039978,169.1940308,551.039978,142.9084778,551.039978,101.6225433,551.039978,52.95611191,551.039978,22.85375977,551.039978,11.14031792,551.039978,5.124359608,551.039978,2.134873867,
551.9400024,187.0224457,551.9400024,183.0206757,551.9400024,163.5802612,551.9400024,137.6571045,551.9400024,98.81807709,551.9400024,54.82873154,551.9400024,22.5264473,551.9400024,10.15801334,551.9400024,5.116611481,551.9400024,2.395783424,
552.9799805,175.1157532,552.9799805,178.453949,552.9799805,158.9983215,552.9799805,133.7486267,552.9799805,92.74975586,552.9799805,50.80313492,552.9799805,22.17923927,552.9799805,10.23288631,552.9799805,5.019951344,552.9799805,2.845686197,
554.0200195,171.408905,554.0200195,173.0035858,554.0200195,150.5904388,554.0200195,132.5375977,554.0200195,90.48265839,554.0200195,49.92567062,554.0200195,21.16203308,554.0200195,10.49837112,554.0200195,4.403669834,554.0200195,3.573555708,
555.0700073,165.6110687,555.0700073,167.6494293,555.0700073,148.5395508,555.0700073,127.5451355,555.0700073,88.626297,555.0700073,46.92498779,555.0700073,20.79785919,555.0700073,9.637392998,555.0700073,5.652494431,555.0700073,2.392058372,
555.9699707,162.4985199,555.9699707,162.8329315,555.9699707,142.6953583,555.9699707,122.2493896,555.9699707,88.62417603,555.9699707,46.0486145,555.9699707,19.31304359,555.9699707,9.115883827,555.9699707,3.889631748,555.9699707,2.258141279,
557.0100098,158.6936493,557.0100098,157.775116,557.0100098,138.8923798,557.0100098,118.1033401,557.0100098,85.27600098,557.0100098,46.03354645,557.0100098,20.42313766,557.0100098,7.738170624,557.0100098,5.520009995,557.0100098,1.562124491,
558.0499878,151.8190308,558.0499878,151.9143066,558.0499878,134.0244904,558.0499878,116.0051804,558.0499878,80.74990845,558.0499878,43.29004669,558.0499878,18.1225071,558.0499878,8.889445305,558.0499878,3.70701766,558.0499878,2.848634005,
558.9500122,147.486557,558.9500122,149.8624573,558.9500122,132.0618134,558.9500122,113.4666367,558.9500122,79.21403503,558.9500122,44.95793152,558.9500122,17.68219757,558.9500122,8.859223366,558.9500122,3.792667627,558.9500122,2.283104897,
560,147.0198669,560,144.8518677,560,128.8546295,560,110.1705627,560,77.23911285,560,42.42641068,560,17.86582375,560,8.117082596,560,4.283734798,560,2.367306232,
561.0200195,140.7230072,561.0200195,140.7790375,561.0200195,121.9725342,561.0200195,107.0350571,561.0200195,74.70986176,561.0200195,40.35493088,561.0200195,17.35903358,561.0200195,7.069913864,561.0200195,4.600141525,561.0200195,2.374732971,
562.0499878,131.5091553,562.0499878,135.6914673,562.0499878,120.7082214,562.0499878,103.439743,562.0499878,73.34152985,562.0499878,38.75770187,562.0499878,17.3589592,562.0499878,8.110100746,562.0499878,4.274548054,562.0499878,2.691272736,
562.9400024,131.7210693,562.9400024,134.9647827,562.9400024,117.6266861,562.9400024,101.8793259,562.9400024,70.72066498,562.9400024,37.77000046,562.9400024,16.02446556,562.9400024,8.58204174,562.9400024,3.704618454,562.9400024,2.365243435,
563.9699707,126.2947311,563.9699707,132.6130829,563.9699707,112.9142075,563.9699707,97.09082794,563.9699707,69.94727325,563.9699707,37.49701309,563.9699707,16.4863472,563.9699707,7.599517822,563.9699707,4.345603466,563.9699707,2.337023497,
565,126.1829605,565,124.1650696,565,110.3981018,565,94.70683289,565,66.97512817,565,36.45443344,565,15.61743259,565,7.103689194,565,3.756103516,565,1.923570156,
566.0200195,119.3813477,566.0200195,121.3182068,566.0200195,106.6601715,566.0200195,91.69156647,566.0200195,63.87935638,566.0200195,36.23625946,566.0200195,16.02285385,566.0200195,6.972616673,566.0200195,3.919705391,566.0200195,1.932367086,
567.0499878,116.0972137,567.0499878,118.4391022,567.0499878,105.1611328,567.0499878,88.37373352,567.0499878,64.40468597,567.0499878,32.87471008,567.0499878,13.45291424,567.0499878,5.770411491,567.0499878,3.819615602,567.0499878,1.700680256,
567.9400024,114.4555969,567.9400024,115.0721436,567.9400024,102.936058,567.9400024,89.19687653,567.9400024,61.62227631,567.9400024,33.50785446,567.9400024,14.1803093,567.9400024,6.595964909,567.9400024,3.705075979,567.9400024,2.078493595,
568.9699707,109.8305054,568.9699707,110.0083771,568.9699707,95.66145325,568.9699707,83.46250153,568.9699707,59.02902985,568.9699707,31.875,568.9699707,14.03979969,568.9699707,6.468465805,568.9699707,3.178235292,568.9699707,1.651003242,
570,104.2815247,570,106.7648392,570,94.8453598,570,82.0817337,570,55.03125381,570,30.7191906,570,13.65923786,570,6.450780869,570,3.837583542,570,1.98338902,
571.039978,100.6631927,571.039978,104.1716919,571.039978,92.71445465,571.039978,77.90938568,571.039978,57.06727219,571.039978,29.69194603,571.039978,13.51185322,571.039978,6.676744461,571.039978,3.578921318,571.039978,2.576687098,
571.9400024,98.2047348,571.9400024,100.2044983,571.9400024,89.01234436,571.9400024,76.23810577,571.9400024,52.11406326,571.9400024,29.09628868,571.9400024,13.89750576,571.9400024,6.079027653,571.9400024,3.875484467,571.9400024,2.113113642,
572.9799805,96.16066742,572.9799805,100.6750488,572.9799805,87.40486145,572.9799805,75.17590332,572.9799805,53.04975128,572.9799805,27.94561958,572.9799805,12.23840332,572.9799805,6.751687527,572.9799805,3.232222795,572.9799805,2.105262995,
574.0200195,95.41305542,574.0200195,95.14007568,574.0200195,82.53026581,574.0200195,71.88341522,574.0200195,50.87892914,574.0200195,25.79535675,574.0200195,10.87753582,574.0200195,6.465795994,574.0200195,2.321035862,574.0200195,1.622161269,
575.0700073,91.05394745,575.0700073,92.02096558,575.0700073,82.38670349,575.0700073,69.44940186,575.0700073,48.26476669,575.0700073,25.55346107,575.0700073,10.99572468,575.0700073,5.554854393,575.0700073,2.565042019,575.0700073,0.8838384151,
575.9699707,86.51430511,575.9699707,90.58615112,575.9699707,76.99676514,575.9699707,70.39644623,575.9699707,47.43465805,575.9699707,26.28628349,575.9699707,11.51727581,575.9699707,5.624846935,575.9699707,3.069446087,575.9699707,1.627441168,
577.0100098,85.18561554,577.0100098,87.11346436,577.0100098,74.89040375,577.0100098,67.1875,577.0100098,44.0088768,577.0100098,25.04726028,577.0100098,12.11764622,577.0100098,4.706181526,577.0100098,3.303444862,577.0100098,1.998001933,
578.0499878,83.09020996,578.0499878,85.02966309,578.0499878,73.73386383,578.0499878,62.93789291,578.0499878,43.75076675,578.0499878,24.57061005,578.0499878,12.14771652,578.0499878,5.289052963,578.0499878,2.704696178,578.0499878,2.060356379,
578.9500122,78.77385712,578.9500122,83.69356537,578.9500122,72.91042328,578.9500122,60.30389404,578.9500122,44.18662262,578.9500122,23.87555695,578.9500122,11.09235573,578.9500122,4.543684483,578.9500122,2.955538511,578.9500122,2.431020021,
580,77.89498138,580,79.88095093,580,70.83383942,580,60.66197586,580,40.90459824,580,21.97802162,580,10.5124836,580,4.889975548,580,2.688500643,580,1.386438131,
581.0200195,75.61568451,581.0200195,76.73610687,581.0200195,67.85316467,581.0200195,56.71965408,581.0200195,41.40480423,581.0200195,22.6510067,581.0200195,9.943009377,581.0200195,4.838914871,581.0200195,2.785515308,581.0200195,1.847518086,
582.0499878,72.48878479,582.0499878,73.06742096,582.0499878,63.36515427,582.0499878,57.87234116,582.0499878,40.17576981,582.0499878,21.65795326,582.0499878,9.128529549,582.0499878,5.129428387,582.0499878,2.15271616,582.0499878,0.3630642593,
582.9400024,69.76212311,582.9400024,72.99612427,582.9400024,63.82978821,582.9400024,53.46026993,582.9400024,39.57516861,582.9400024,21.5465641,582.9400024,8.683239937,582.9400024,4.305830002,582.9400024,2.80385232,582.9400024,1.695325732,
583.9699707,69.05695343,583.9699707,68.91845703,583.9699707,62.6798439,583.9699707,53.50730133,583.9699707,35.87096786,583.9699707,20.06769753,583.9699707,9.552538872,583.9699707,4.969374657,583.9699707,2.566295862,583.9699707,1.43434608,
585,66.03225708,585,67.78643799,585,58.76844025,585,50.44136047,585,37.00505447,585,20.35408783,585,8.315750122,585,4.655259132,585,2.97734642,585,1.414427161,
586.0200195,64.21908569,586.0200195,66.3111496,586.0200195,56.41209412,586.0200195,48.76023102,586.0200195,33.51607132,586.0200195,19.77644157,586.0200195,8.506501198,586.0200195,3.804692507,586.0200195,2.738702774,586.0200195,1.012145758,
587.0499878,61.64542389,587.0499878,62.92864609,587.0499878,56.39238358,587.0499878,47.02271271,587.0499878,33.39169693,587.0499878,18.70919228,587.0499878,8.680767059,587.0499878,3.191358805,587.0499878,2.184996367,587.0499878,1.527353525,
587.9400024,61.35110092,587.9400024,60.97994995,587.9400024,54.46649933,587.9400024,47.19372559,587.9400024,32.20359421,587.9400024,18.13093185,587.9400024,9.019026756,587.9400024,3.480556965,587.9400024,3.094825506,587.9400024,0.726744175,
588.9699707,60.12297821,588.9699707,58.80960846,588.9699707,52.5675354,588.9699707,44.78328705,588.9699707,32.27763748,588.9699707,18.17498207,588.9699707,7.652431488,588.9699707,3.658090591,588.9699707,2.767749548,588.9699707,0.738188982,
590,57.66138458,590,57.5306282,590,51.81347275,590,43.69645309,590,30.64208412,590,17.64706039,590,7.509540558,590,4.266532421,590,2.016129017,590,1.143292665,
591.0200195,54.39237976,591.0200195,56.12065887,591.0200195,50.07997894,591.0200195,43.09190369,591.0200195,27.34796715,591.0200195,16.86011124,591.0200195,6.186868668,591.0200195,3.988879204,591.0200195,2.623688221,591.0200195,1.570427656,
592.0499878,52.99126053,592.0499878,55.35011292,592.0499878,49.62749481,592.0499878,42.36277008,592.0499878,29.30267143,592.0499878,16.79149628,592.0499878,6.734846592,592.0499878,4.366267681,592.0499878,1.572136879,592.0499878,2.319335938,
592.9400024,52.11267471,592.9400024,52.06701279,592.9400024,46.44113159,592.9400024,40.55842972,592.9400024,27.10843468,592.9400024,15.27482224,592.9400024,7.035419941,592.9400024,4.682686329,592.9400024,2.313968897,592.9400024,1.007683516,
593.9699707,51.66553497,593.9699707,50.19607925,593.9699707,46.50608063,593.9699707,39.97227097,593.9699707,28.32512283,593.9699707,14.4599514,593.9699707,6.884057999,593.9699707,3.880669355,593.9699707,1.950030446,593.9699707,0.8629191518,
595,49.61832428,595,48.94301224,595,44.13009262,595,36.06068039,595,26.56882668,595,13.73134327,595,6.377238274,595,2.196729422,595,1.81093812,595,1.997253895,
596.0200195,49.31413651,596.0200195,47.06026077,596.0200195,43.13022614,596.0200195,35.7660675,596.0200195,24.95718193,596.0200195,14.31870651,596.0200195,6.015399456,596.0200195,3.73269105,596.0200195,2.09359622,596.0200195,1.004394293,
597.0499878,45.56113815,597.0499878,46.51992798,597.0499878,41.16618347,597.0499878,34.54803848,597.0499878,24.6739521,597.0499878,15.94309521,597.0499878,5.900815964,597.0499878,2.973609209,597.0499878,1.449625492,597.0499878,1.775072932,
597.9400024,44.8132782,597.9400024,45.59160233,597.9400024,40.783638,597.9400024,34.70874023,597.9400024,24.34367561,597.9400024,13.86025143,597.9400024,6.236746788,597.9400024,3.378378391,597.9400024,1.475107551,597.9400024,0.9026434422,
598.9699707,43.14488602,598.9699707,43.20679092,598.9699707,38.31787109,598.9699707,32.79092407,598.9699707,22.62016869,598.9699707,12.80210495,598.9699707,5.947955608,598.9699707,3.947692871,598.9699707,1.627237439,598.9699707,1.239618182,
600,41.90007019,600,43.39644623,600,36.76652527,600,32.20592117,600,22.33429527,600,11.80857658,600,6.78585434,600,2.947070599,600,1.604278088,600,0.7940709591,
601.0200195,40.57081985,601.0200195,40.96553421,601.0200195,37.67584229,601.0200195,30.65589523,601.0200195,22.1092453,601.0200195,11.30741978,601.0200195,4.02340889,601.0200195,2.779386282,601.0200195,1.781684279,601.0200195,0.502071023,
602.0499878,40.18460083,602.0499878,39.33240128,602.0499878,34.1276474,602.0499878,29.64276695,602.0499878,20.08660126,602.0499878,11.08300209,602.0499878,5.381604671,602.0499878,3.14836669,602.0499878,1.73718822,602.0499878,1.173433542,
602.9400024,38.81820297,602.9400024,38.99268723,602.9400024,35.55344772,602.9400024,28.47912025,602.9400024,20.72283173,602.9400024,11.11653996,602.9400024,6.110487461,602.9400024,2.732579947,602.9400024,1.725200176,602.9400024,1.686950207,
603.9699707,38.17142868,603.9699707,36.68787003,603.9699707,33.77110672,603.9699707,26.97798157,603.9699707,20.48031235,603.9699707,10.09849167,603.9699707,5.088441849,603.9699707,2.725808382,603.9699707,1.631935716,603.9699707,0.8488964438,
605,36.80410004,605,37.98842621,605,32.10956192,605,26.96078491,605,19.73760605,605,10.54801178,605,4.797637939,605,3.542510033,605,2.546071768,605,0.8722741604,
606.0200195,32.26519394,606.0200195,33.88190079,606.0200195,31.94044113,606.0200195,26.41926765,606.0200195,17.82008934,606.0200195,10.47789383,606.0200195,4.764231205,606.0200195,2.580169678,606.0200195,1.022625566,606.0200195,2.035105705,
607.0499878,34.20362473,607.0499878,33.80215073,607.0499878,28.45927238,607.0499878,25.25192642,607.0499878,17.5544796,607.0499878,10.06415844,607.0499878,4.760115623,607.0499878,2.95578146,607.0499878,2.07392931,607.0499878,0.4949882329,
607.9400024,33.84791183,607.9400024,32.72266388,607.9400024,30.03274345,607.9400024,25.51281929,607.9400024,17.76155663,607.9400024,10.10349941,607.9400024,4.41039896,607.9400024,2.264435768,607.9400024,1.912503004,607.9400024,1.642614126,
608.9699707,32.5892868,608.9699707,31.50358009,608.9699707,28.62362862,608.9699707,23.35955048,608.9699707,17.33827591,608.9699707,8.928571701,608.9699707,3.762135983,608.9699707,3.136687279,608.9699707,1.716106892,608.9699707,1.535508633,
610,30.63104439,610,31.1796093,610,27.04319763,610,22.84037399,610,16.9756813,610,9.081383705,610,4.346776485,610,2.345389366,610,2.631893873,610,1.066224456,
611.0100098,30.25133705,611.0100098,29.68897247,611.0100098,25.76832008,611.0100098,23.83833504,611.0100098,16.31923676,611.0100098,8.718818665,611.0100098,3.649205446,611.0100098,2.774274826,611.0100098,1.632960677,611.0100098,1.863353968,
612.0200195,30.99059105,612.0200195,29.46417999,612.0200195,25.04153824,612.0200195,22.77631378,612.0200195,17.02989006,612.0200195,9.718292236,612.0200195,4.119215012,612.0200195,1.496446013,612.0200195,2.105262995,612.0200195,1.317996621,
613.039978,29.47873116,613.039978,28.10276031,613.039978,25.28816795,613.039978,21.97120094,613.039978,14.44838905,613.039978,8.251425743,613.039978,4.141521454,613.039978,2.1102283,613.039978,1.908169389,613.039978,0.3740648329,
614.0499878,28.37988663,614.0499878,27.99712944,614.0499878,22.96595383,614.0499878,20.85342216,614.0499878,13.2498188,614.0499878,8.292272568,614.0499878,4.533434391,614.0499878,1.740860462,614.0499878,1.951219559,614.0499878,0.8721655011,
615.0700073,26.34043694,615.0700073,26.78049278,615.0700073,22.29721642,615.0700073,18.90730476,615.0700073,13.67701244,615.0700073,6.926951885,615.0700073,3.423848867,615.0700073,2.101619482,615.0700073,1.845926642,615.0700073,1.203659058,
615.9400024,25.0626564,615.9400024,25.49837685,615.9400024,23.07225227,615.9400024,19.6078434,615.9400024,12.53041363,615.9400024,7.210343361,615.9400024,3.479557514,615.9400024,1.52187705,615.9400024,1.241156697,615.9400024,1.716106892,
616.9500122,24.92719841,616.9500122,25.28735542,616.9500122,22.75151062,616.9500122,18.807621,616.9500122,12.33396626,616.9500122,7.59824276,616.9500122,3.55218029,616.9500122,1.292748809,616.9500122,1.219512224,616.9500122,1.386481762,
617.9699707,25.31929207,617.9699707,25.2566967,617.9699707,20.82819939,617.9699707,17.10117149,617.9699707,13.34141922,617.9699707,6.394984245,617.9699707,2.689157963,617.9699707,2.225244284,617.9699707,1.12669003,617.9699707,0.3716551065,
618.9799805,22.80761909,618.9799805,22.93796158,618.9799805,20.30084419,618.9799805,16.32011604,618.9799805,12.85004234,618.9799805,7.720144749,618.9799805,3.400164127,618.9799805,2.094627857,618.9799805,0.6262524724,618.9799805,1.366459608,
620,23.15299606,620,23.42233086,620,20.03339005,620,16.73117638,620,11.6431036,620,7.392147541,620,2.840572834,620,2.44140625,620,1.61110425,620,0.5259006023,
621.0200195,22.84090996,621.0200195,22.13848305,621.0200195,18.96425819,621.0200195,16.23129654,621.0200195,10.67109299,621.0200195,6.62820673,621.0200195,2.709359646,621.0200195,1.948368311,621.0200195,0.7698228955,621.0200195,0.7471979856,
622.0499878,22.54409599,622.0499878,20.96018791,622.0499878,18.21811867,622.0499878,16.20825195,622.0499878,11.01726055,622.0499878,7.079865932,622.0499878,3.350083828,622.0499878,1.770120382,622.0499878,1.109330654,622.0499878,0.1249063239,
622.9400024,20.76085663,622.9400024,20.32227135,622.9400024,18.34975433,622.9400024,16.36043358,622.9400024,10.93345833,622.9400024,6.746626377,622.9400024,2.540834904,622.9400024,2.45183897,622.9400024,0.9797917604,622.9400024,0.1197461411,
623.9699707,20.14530945,623.9699707,20.61378098,623.9699707,16.77071953,623.9699707,14.16880417,623.9699707,10.47120476,623.9699707,6.07164526,623.9699707,3.107520342,623.9699707,1.421464086,623.9699707,1.119542241,623.9699707,0.8675176501,
625,19.48814201,625,18.38500404,625,16.56718254,625,14.45015907,625,10.80319405,625,6.012023926,625,2.979146004,625,1.069900155,625,0.2409638613,625,0.2455192804,
626.0200195,19.2621994,626.0200195,18.33180618,626.0200195,15.13866997,626.0200195,14.13832569,626.0200195,8.148147583,626.0200195,5.096040726,626.0200195,2.874640703,626.0200195,1.328341961,626.0200195,1.173433542,626.0200195,0.3787878752,
627.0499878,18.69882584,627.0499878,17.91296005,627.0499878,14.24534988,627.0499878,13.43026066,627.0499878,9.106829643,627.0499878,5.100801468,627.0499878,2.879679441,627.0499878,0.6189650893,627.0499878,1.108374357,627.0499878,0.6093844771,
627.9400024,19.79297066,627.9400024,17.85302925,627.9400024,15.77861404,627.9400024,13.46923923,627.9400024,9.231128693,627.9400024,5.305366993,627.9400024,2.623688221,627.9400024,1.907259464,627.9400024,1.017164707,627.9400024,1.180080175,
628.9699707,18.16509438,628.9699707,16.39540482,628.9699707,15.45915985,628.9699707,12.42312431,628.9699707,8.889956474,628.9699707,5.542169094,628.9699707,3.179852486,628.9699707,0.6200397015,628.9699707,1.340645909,628.9699707,0.7494378686,
630,16.83501625,630,16.40689087,630,14.92537308,630,12.50758934,630,8.093742371,630,5.119255066,630,2.497027397,630,1.017811656,630,0.8559550047,630,1.243008018,
631.0100098,16.42664337,631.0100098,17.12654495,631.0100098,13.50259686,631.0100098,11.70138073,631.0100098,9.476369858,631.0100098,3.559127331,631.0100098,2.110446692,631.0100098,1.111797452,631.0100098,0.3673319519,631.0100098,1.212709188,
632.0200195,17.48212051,632.0200195,14.76190472,632.0200195,13.20498657,632.0200195,12.44167995,632.0200195,8.204633713,632.0200195,4.378496647,632.0200195,2.057613134,632.0200195,0.9951486588,632.0200195,1.009591103,632.0200195,0.6113964319,
633.039978,15.63404655,633.039978,15.64537144,633.039978,12.09381866,633.039978,11.50639915,633.039978,7.380074024,633.039978,4.212806702,633.039978,1.958074331,633.039978,1.117179751,633.039978,1.241002679,633.039978,0.4963395298,
634.0499878,14.54672432,634.0499878,14.64808846,634.0499878,12.72727299,634.0499878,10.99810791,634.0499878,7.392557144,634.0499878,4.394821167,634.0499878,2.146690607,634.0499878,1.394523263,634.0499878,1.391172409,634.0499878,0.9905893803,
635.0700073,15.34233952,635.0700073,14.81658459,635.0700073,11.35820198,635.0700073,10.97519112,635.0700073,7.739152431,635.0700073,4.037045956,635.0700073,2.154398441,635.0700073,1.579586864,635.0700073,-0.7476635575,635.0700073,0.6296436191,
635.9400024,14.30930138,635.9400024,13.43522739,635.9400024,12.89860249,635.9400024,8.841098785,635.9400024,7.20201683,635.9400024,4.3072505,635.9400024,1.560436964,635.9400024,0.616522789,635.9400024,-0.1231527105,635.9400024,-0.4923076928,
636.9500122,13.29512882,636.9500122,13.5746603,636.9500122,12.86135674,636.9500122,10.24544048,636.9500122,6.966511726,636.9500122,4.428588867,636.9500122,1.513431668,636.9500122,0.8172796369,636.9500122,0.8424599767,636.9500122,0.378501147,
637.9699707,12.87015915,637.9699707,12.53305721,637.9699707,10.93531895,637.9699707,10.86328411,637.9699707,7.099025249,637.9699707,3.511235952,637.9699707,2.155688524,637.9699707,0.6164467931,637.9699707,1.275835633,637.9699707,0,
638.9799805,12.74543571,638.9799805,12.23817348,638.9799805,10.96869659,638.9799805,9.172260284,638.9799805,6.806782722,638.9799805,3.516003847,638.9799805,1.396160603,638.9799805,1.40318048,638.9799805,0.720980525,638.9799805,-0.2498438358,
640,12.70336533,640,12.46795654,640,9.609536171,640,9.53146553,640,6.2492342,640,3.62191844,640,2.123392582,640,0.3677822948,640,0.1221001297,640,0.8497207761,
641.0100098,10.82906437,641.0100098,11.69451046,641.0100098,10.29180241,641.0100098,9.089745522,641.0100098,5.038712025,641.0100098,4.166666985,641.0100098,1.895285487,641.0100098,1.480202317,641.0100098,1.128385186,641.0100098,0.5011903048,
642.0200195,11.94635391,642.0200195,10.78886318,642.0200195,9.117474556,642.0200195,8.237821579,642.0200195,5.189029217,642.0200195,3.599210501,642.0200195,1.958074331,642.0200195,0.714030683,642.0200195,0.1195743158,642.0200195,0.3797949255,
643.039978,11.30741978,643.039978,11.02734375,643.039978,9.30557251,643.039978,8.689441681,643.039978,6.271598339,643.039978,2.977253914,643.039978,1.878816366,643.039978,0.4873294234,643.039978,0.8277166486,643.039978,-0.1223690659,
644.0499878,11.32118225,644.0499878,11.23196983,644.0499878,9.601873398,644.0499878,8.542895317,644.0499878,4.485363483,644.0499878,3.124624491,644.0499878,1.121355534,644.0499878,0.7659900784,644.0499878,0.2514142096,644.0499878,1.269035459,
645.0700073,10.70888138,645.0700073,11.06194687,645.0700073,9.191390038,645.0700073,6.973171234,645.0700073,4.888517857,645.0700073,3.390240908,645.0700073,1.396973252,645.0700073,1.518336773,645.0700073,0.6270378828,645.0700073,1.342281938,
645.9400024,11.14488411,645.9400024,10.40462399,645.9400024,7.86200428,645.9400024,7.295777798,645.9400024,5.042213917,645.9400024,3.433055401,645.9400024,1.563251615,645.9400024,0,645.9400024,0.9908347726,645.9400024,0.3819223642,
646.9500122,10.65698528,646.9500122,9.897571564,646.9500122,8.958309174,646.9500122,6.48974371,646.9500122,5.085146427,646.9500122,2.642174006,646.9500122,1.404330015,646.9500122,0.8572128415,646.9500122,0.5063291192,646.9500122,0.5105296969,
647.9699707,10.27129555,647.9699707,10.06486225,647.9699707,8.138468742,647.9699707,6.132075787,647.9699707,4.755677223,647.9699707,3.312946081,647.9699707,1.207000613,647.9699707,0.3654525578,647.9699707,0.6018295288,647.9699707,-0.9073233604,
648.9799805,10.63075829,648.9799805,10.03575993,648.9799805,8.180943489,648.9799805,6.269592285,648.9799805,5.00756979,648.9799805,2.706027031,648.9799805,2.115743637,648.9799805,0.8684863448,648.9799805,0.239607051,648.9799805,-0.3766951263,
650,9.900989532,650,9.732937813,650,8.889415741,650,6.321564674,650,4.400047302,650,2.097413063,650,1.279813766,650,0.2560491562,650,0.5069708824,650,0.2483546585,

0,
Sample2
Collection Time: 4/23/2018 10:22:54 AM
Operator Name  :
Scan Software Version: 1.2(147)
Parameter List :
Instrument                        Cary Eclipse
Instrument Serial Number          EL00063371
Data mode                         Fluorescence
Scan mode                         Emission
X Mode                            Wavelength (nm)
Start (nm)                        360.00
Stop (nm)                         650.00
Ex. Wavelength (nm)               350.00
Ex. Slit (nm)                     5
Em. Slit (nm)                     5
Scan rate (nm/min)                600.00
Data interval (nm)                1.0000
Averaging Time (s)                0.1000
Excitation filter                 Auto
Emission filter                   Open
PMT voltage (V)                   650
Corrected spectra                 OFF
Multicell holder                  Multicell
Multi zero                       OFF
Method Log     :
Method Name    : Default
Date/Time stamp: 4/23/2018 10:20:05 AM
Method Modifications:
Emission Wavelength Changed: 4/23/2018 10:20:39 AM, Old: 400.00, New: 360.00
Stop Wavelength Changed: 4/23/2018 10:20:39 AM, Old: 600.00, New: 650.00
Overlayed Graphs Changed: 4/23/2018 10:20:52 AM, Old:OFF, New:ON
Cell Changer Changed: 4/23/2018 10:20:52 AM, Old:OFF, New:ON
Cell2 Changed: 4/23/2018 10:20:52 AM, Old:OFF, New:ON
Monitoring device: Changed: 4/23/2018 10:20:52 AM, Old:PCB 150, New:Block
PMT Volts Changed: 4/23/2018 10:21:59 AM, Old:600, New:700
Emission PMT (V): Changed: 4/23/2018 10:21:59 AM, Old: 600, New: 700
PMT Volts Changed: 4/23/2018 10:22:41 AM, Old:700, New:650
Emission PMT (V): Changed: 4/23/2018 10:22:41 AM, Old: 700, New: 650
End Method Modifications
Continuum name changed to '0'

1,
1
Collection Time: 4/23/2018 10:34:02 AM
Operator Name  :
Scan Software Version: 1.2(147)
Parameter List :
Instrument                        Cary Eclipse
Instrument Serial Number          EL00063371
Data mode                         Fluorescence
Scan mode                         Emission
X Mode                            Wavelength (nm)
Start (nm)                        360.00
Stop (nm)                         650.00
Ex. Wavelength (nm)               350.00
Ex. Slit (nm)                     5
Em. Slit (nm)                     5
Scan rate (nm/min)                600.00
Data interval (nm)                1.0000
Averaging Time (s)                0.1000
Excitation filter                 Auto
Emission filter                   Open
PMT voltage (V)                   650
Corrected spectra                 OFF
Multicell holder                  Multicell
Multi zero                       OFF
Method Log     :
Method Name    : Default
Date/Time stamp: 4/23/2018 10:20:05 AM
Method Modifications:
Emission Wavelength Changed: 4/23/2018 10:20:39 AM, Old: 400.00, New: 360.00
Stop Wavelength Changed: 4/23/2018 10:20:39 AM, Old: 600.00, New: 650.00
Overlayed Graphs Changed: 4/23/2018 10:20:52 AM, Old:OFF, New:ON
Cell Changer Changed: 4/23/2018 10:20:52 AM, Old:OFF, New:ON
Cell2 Changed: 4/23/2018 10:20:52 AM, Old:OFF, New:ON
Monitoring device: Changed: 4/23/2018 10:20:52 AM, Old:PCB 150, New:Block
PMT Volts Changed: 4/23/2018 10:21:59 AM, Old:600, New:700
Emission PMT (V): Changed: 4/23/2018 10:21:59 AM, Old: 600, New: 700
PMT Volts Changed: 4/23/2018 10:22:41 AM, Old:700, New:650
Emission PMT (V): Changed: 4/23/2018 10:22:41 AM, Old: 700, New: 650
Sample2 Changed: 4/23/2018 10:34:02 AM, Old:Sample2, New:1
End Method Modifications

2,
2
Collection Time: 4/23/2018 10:42:30 AM
Operator Name  :
Scan Software Version: 1.2(147)
Parameter List :
Instrument                        Cary Eclipse
Instrument Serial Number          EL00063371
Data mode                         Fluorescence
Scan mode                         Emission
X Mode                            Wavelength (nm)
Start (nm)                        360.00
Stop (nm)                         650.00
Ex. Wavelength (nm)               350.00
Ex. Slit (nm)                     5
Em. Slit (nm)                     5
Scan rate (nm/min)                600.00
Data interval (nm)                1.0000
Averaging Time (s)                0.1000
Excitation filter                 Auto
Emission filter                   Open
PMT voltage (V)                   650
Corrected spectra                 OFF
Multicell holder                  Multicell
Multi zero                       OFF
Method Log     :
Method Name    : Default
Date/Time stamp: 4/23/2018 10:20:05 AM
Method Modifications:
Emission Wavelength Changed: 4/23/2018 10:20:39 AM, Old: 400.00, New: 360.00
Stop Wavelength Changed: 4/23/2018 10:20:39 AM, Old: 600.00, New: 650.00
Overlayed Graphs Changed: 4/23/2018 10:20:52 AM, Old:OFF, New:ON
Cell Changer Changed: 4/23/2018 10:20:52 AM, Old:OFF, New:ON
Cell2 Changed: 4/23/2018 10:20:52 AM, Old:OFF, New:ON
Monitoring device: Changed: 4/23/2018 10:20:52 AM, Old:PCB 150, New:Block
PMT Volts Changed: 4/23/2018 10:21:59 AM, Old:600, New:700
Emission PMT (V): Changed: 4/23/2018 10:21:59 AM, Old: 600, New: 700
PMT Volts Changed: 4/23/2018 10:22:41 AM, Old:700, New:650
Emission PMT (V): Changed: 4/23/2018 10:22:41 AM, Old: 700, New: 650
Sample2 Changed: 4/23/2018 10:34:02 AM, Old:Sample2, New:1
Sample2 Changed: 4/23/2018 10:42:30 AM, Old:1, New:2
End Method Modifications

3,
3
Collection Time: 4/23/2018 10:48:41 AM
Operator Name  :
Scan Software Version: 1.2(147)
Parameter List :
Instrument                        Cary Eclipse
Instrument Serial Number          EL00063371
Data mode                         Fluorescence
Scan mode                         Emission
X Mode                            Wavelength (nm)
Start (nm)                        360.00
Stop (nm)                         650.00
Ex. Wavelength (nm)               350.00
Ex. Slit (nm)                     5
Em. Slit (nm)                     5
Scan rate (nm/min)                600.00
Data interval (nm)                1.0000
Averaging Time (s)                0.1000
Excitation filter                 Auto
Emission filter                   Open
PMT voltage (V)                   650
Corrected spectra                 OFF
Multicell holder                  Multicell
Multi zero                       OFF
Method Log     :
Method Name    : Default
Date/Time stamp: 4/23/2018 10:20:05 AM
Method Modifications:
Emission Wavelength Changed: 4/23/2018 10:20:39 AM, Old: 400.00, New: 360.00
Stop Wavelength Changed: 4/23/2018 10:20:39 AM, Old: 600.00, New: 650.00
Overlayed Graphs Changed: 4/23/2018 10:20:52 AM, Old:OFF, New:ON
Cell Changer Changed: 4/23/2018 10:20:52 AM, Old:OFF, New:ON
Cell2 Changed: 4/23/2018 10:20:52 AM, Old:OFF, New:ON
Monitoring device: Changed: 4/23/2018 10:20:52 AM, Old:PCB 150, New:Block
PMT Volts Changed: 4/23/2018 10:21:59 AM, Old:600, New:700
Emission PMT (V): Changed: 4/23/2018 10:21:59 AM, Old: 600, New: 700
PMT Volts Changed: 4/23/2018 10:22:41 AM, Old:700, New:650
Emission PMT (V): Changed: 4/23/2018 10:22:41 AM, Old: 700, New: 650
Sample2 Changed: 4/23/2018 10:34:02 AM, Old:Sample2, New:1
Sample2 Changed: 4/23/2018 10:42:30 AM, Old:1, New:2
Sample2 Changed: 4/23/2018 10:48:41 AM, Old:2, New:3
End Method Modifications

4,
4
Collection Time: 4/23/2018 10:56:39 AM
Operator Name  :
Scan Software Version: 1.2(147)
Parameter List :
Instrument                        Cary Eclipse
Instrument Serial Number          EL00063371
Data mode                         Fluorescence
Scan mode                         Emission
X Mode                            Wavelength (nm)
Start (nm)                        360.00
Stop (nm)                         650.00
Ex. Wavelength (nm)               350.00
Ex. Slit (nm)                     5
Em. Slit (nm)                     5
Scan rate (nm/min)                600.00
Data interval (nm)                1.0000
Averaging Time (s)                0.1000
Excitation filter                 Auto
Emission filter                   Open
PMT voltage (V)                   650
Corrected spectra                 OFF
Multicell holder                  Multicell
Multi zero                       OFF
Method Log     :
Method Name    : Default
Date/Time stamp: 4/23/2018 10:20:05 AM
Method Modifications:
Emission Wavelength Changed: 4/23/2018 10:20:39 AM, Old: 400.00, New: 360.00
Stop Wavelength Changed: 4/23/2018 10:20:39 AM, Old: 600.00, New: 650.00
Overlayed Graphs Changed: 4/23/2018 10:20:52 AM, Old:OFF, New:ON
Cell Changer Changed: 4/23/2018 10:20:52 AM, Old:OFF, New:ON
Cell2 Changed: 4/23/2018 10:20:52 AM, Old:OFF, New:ON
Monitoring device: Changed: 4/23/2018 10:20:52 AM, Old:PCB 150, New:Block
PMT Volts Changed: 4/23/2018 10:21:59 AM, Old:600, New:700
Emission PMT (V): Changed: 4/23/2018 10:21:59 AM, Old: 600, New: 700
PMT Volts Changed: 4/23/2018 10:22:41 AM, Old:700, New:650
Emission PMT (V): Changed: 4/23/2018 10:22:41 AM, Old: 700, New: 650
Sample2 Changed: 4/23/2018 10:34:02 AM, Old:Sample2, New:1
Sample2 Changed: 4/23/2018 10:42:30 AM, Old:1, New:2
Sample2 Changed: 4/23/2018 10:48:41 AM, Old:2, New:3
Sample2 Changed: 4/23/2018 10:56:39 AM, Old:3, New:4
End Method Modifications

5,
5
Collection Time: 4/23/2018 11:03:55 AM
Operator Name  :
Scan Software Version: 1.2(147)
Parameter List :
Instrument                        Cary Eclipse
Instrument Serial Number          EL00063371
Data mode                         Fluorescence
Scan mode                         Emission
X Mode                            Wavelength (nm)
Start (nm)                        360.00
Stop (nm)                         650.00
Ex. Wavelength (nm)               350.00
Ex. Slit (nm)                     5
Em. Slit (nm)                     5
Scan rate (nm/min)                600.00
Data interval (nm)                1.0000
Averaging Time (s)                0.1000
Excitation filter                 Auto
Emission filter                   Open
PMT voltage (V)                   650
Corrected spectra                 OFF
Multicell holder                  Multicell
Multi zero                       OFF
Method Log     :
Method Name    : Default
Date/Time stamp: 4/23/2018 10:20:05 AM
Method Modifications:
Emission Wavelength Changed: 4/23/2018 10:20:39 AM, Old: 400.00, New: 360.00
Stop Wavelength Changed: 4/23/2018 10:20:39 AM, Old: 600.00, New: 650.00
Overlayed Graphs Changed: 4/23/2018 10:20:52 AM, Old:OFF, New:ON
Cell Changer Changed: 4/23/2018 10:20:52 AM, Old:OFF, New:ON
Cell2 Changed: 4/23/2018 10:20:52 AM, Old:OFF, New:ON
Monitoring device: Changed: 4/23/2018 10:20:52 AM, Old:PCB 150, New:Block
PMT Volts Changed: 4/23/2018 10:21:59 AM, Old:600, New:700
Emission PMT (V): Changed: 4/23/2018 10:21:59 AM, Old: 600, New: 700
PMT Volts Changed: 4/23/2018 10:22:41 AM, Old:700, New:650
Emission PMT (V): Changed: 4/23/2018 10:22:41 AM, Old: 700, New: 650
Sample2 Changed: 4/23/2018 10:34:02 AM, Old:Sample2, New:1
Sample2 Changed: 4/23/2018 10:42:30 AM, Old:1, New:2
Sample2 Changed: 4/23/2018 10:48:41 AM, Old:2, New:3
Sample2 Changed: 4/23/2018 10:56:39 AM, Old:3, New:4
Sample2 Changed: 4/23/2018 11:03:55 AM, Old:4, New:5
End Method Modifications

6,
6
Collection Time: 4/23/2018 11:11:07 AM
Operator Name  :
Scan Software Version: 1.2(147)
Parameter List :
Instrument                        Cary Eclipse
Instrument Serial Number          EL00063371
Data mode                         Fluorescence
Scan mode                         Emission
X Mode                            Wavelength (nm)
Start (nm)                        360.00
Stop (nm)                         650.00
Ex. Wavelength (nm)               350.00
Ex. Slit (nm)                     5
Em. Slit (nm)                     5
Scan rate (nm/min)                600.00
Data interval (nm)                1.0000
Averaging Time (s)                0.1000
Excitation filter                 Auto
Emission filter                   Open
PMT voltage (V)                   650
Corrected spectra                 OFF
Multicell holder                  Multicell
Multi zero                       OFF
Method Log     :
Method Name    : Default
Date/Time stamp: 4/23/2018 10:20:05 AM
Method Modifications:
Emission Wavelength Changed: 4/23/2018 10:20:39 AM, Old: 400.00, New: 360.00
Stop Wavelength Changed: 4/23/2018 10:20:39 AM, Old: 600.00, New: 650.00
Overlayed Graphs Changed: 4/23/2018 10:20:52 AM, Old:OFF, New:ON
Cell Changer Changed: 4/23/2018 10:20:52 AM, Old:OFF, New:ON
Cell2 Changed: 4/23/2018 10:20:52 AM, Old:OFF, New:ON
Monitoring device: Changed: 4/23/2018 10:20:52 AM, Old:PCB 150, New:Block
PMT Volts Changed: 4/23/2018 10:21:59 AM, Old:600, New:700
Emission PMT (V): Changed: 4/23/2018 10:21:59 AM, Old: 600, New: 700
PMT Volts Changed: 4/23/2018 10:22:41 AM, Old:700, New:650
Emission PMT (V): Changed: 4/23/2018 10:22:41 AM, Old: 700, New: 650
Sample2 Changed: 4/23/2018 10:34:02 AM, Old:Sample2, New:1
Sample2 Changed: 4/23/2018 10:42:30 AM, Old:1, New:2
Sample2 Changed: 4/23/2018 10:48:41 AM, Old:2, New:3
Sample2 Changed: 4/23/2018 10:56:39 AM, Old:3, New:4
Sample2 Changed: 4/23/2018 11:03:55 AM, Old:4, New:5
Sample2 Changed: 4/23/2018 11:11:07 AM, Old:5, New:6
End Method Modifications

7,
7
Collection Time: 4/23/2018 11:18:00 AM
Operator Name  :
Scan Software Version: 1.2(147)
Parameter List :
Instrument                        Cary Eclipse
Instrument Serial Number          EL00063371
Data mode                         Fluorescence
Scan mode                         Emission
X Mode                            Wavelength (nm)
Start (nm)                        360.00
Stop (nm)                         650.00
Ex. Wavelength (nm)               350.00
Ex. Slit (nm)                     5
Em. Slit (nm)                     5
Scan rate (nm/min)                600.00
Data interval (nm)                1.0000
Averaging Time (s)                0.1000
Excitation filter                 Auto
Emission filter                   Open
PMT voltage (V)                   650
Corrected spectra                 OFF
Multicell holder                  Multicell
Multi zero                       OFF
Method Log     :
Method Name    : Default
Date/Time stamp: 4/23/2018 10:20:05 AM
Method Modifications:
Emission Wavelength Changed: 4/23/2018 10:20:39 AM, Old: 400.00, New: 360.00
Stop Wavelength Changed: 4/23/2018 10:20:39 AM, Old: 600.00, New: 650.00
Overlayed Graphs Changed: 4/23/2018 10:20:52 AM, Old:OFF, New:ON
Cell Changer Changed: 4/23/2018 10:20:52 AM, Old:OFF, New:ON
Cell2 Changed: 4/23/2018 10:20:52 AM, Old:OFF, New:ON
Monitoring device: Changed: 4/23/2018 10:20:52 AM, Old:PCB 150, New:Block
PMT Volts Changed: 4/23/2018 10:21:59 AM, Old:600, New:700
Emission PMT (V): Changed: 4/23/2018 10:21:59 AM, Old: 600, New: 700
PMT Volts Changed: 4/23/2018 10:22:41 AM, Old:700, New:650
Emission PMT (V): Changed: 4/23/2018 10:22:41 AM, Old: 700, New: 650
Sample2 Changed: 4/23/2018 10:34:02 AM, Old:Sample2, New:1
Sample2 Changed: 4/23/2018 10:42:30 AM, Old:1, New:2
Sample2 Changed: 4/23/2018 10:48:41 AM, Old:2, New:3
Sample2 Changed: 4/23/2018 10:56:39 AM, Old:3, New:4
Sample2 Changed: 4/23/2018 11:03:55 AM, Old:4, New:5
Sample2 Changed: 4/23/2018 11:11:07 AM, Old:5, New:6
Sample2 Changed: 4/23/2018 11:18:00 AM, Old:6, New:7
End Method Modifications

8,
8
Collection Time: 4/23/2018 11:25:58 AM
Operator Name  :
Scan Software Version: 1.2(147)
Parameter List :
Instrument                        Cary Eclipse
Instrument Serial Number          EL00063371
Data mode                         Fluorescence
Scan mode                         Emission
X Mode                            Wavelength (nm)
Start (nm)                        360.00
Stop (nm)                         650.00
Ex. Wavelength (nm)               350.00
Ex. Slit (nm)                     5
Em. Slit (nm)                     5
Scan rate (nm/min)                600.00
Data interval (nm)                1.0000
Averaging Time (s)                0.1000
Excitation filter                 Auto
Emission filter                   Open
PMT voltage (V)                   650
Corrected spectra                 OFF
Multicell holder                  Multicell
Multi zero                       OFF
Method Log     :
Method Name    : Default
Date/Time stamp: 4/23/2018 10:20:05 AM
Method Modifications:
Emission Wavelength Changed: 4/23/2018 10:20:39 AM, Old: 400.00, New: 360.00
Stop Wavelength Changed: 4/23/2018 10:20:39 AM, Old: 600.00, New: 650.00
Overlayed Graphs Changed: 4/23/2018 10:20:52 AM, Old:OFF, New:ON
Cell Changer Changed: 4/23/2018 10:20:52 AM, Old:OFF, New:ON
Cell2 Changed: 4/23/2018 10:20:52 AM, Old:OFF, New:ON
Monitoring device: Changed: 4/23/2018 10:20:52 AM, Old:PCB 150, New:Block
PMT Volts Changed: 4/23/2018 10:21:59 AM, Old:600, New:700
Emission PMT (V): Changed: 4/23/2018 10:21:59 AM, Old: 600, New: 700
PMT Volts Changed: 4/23/2018 10:22:41 AM, Old:700, New:650
Emission PMT (V): Changed: 4/23/2018 10:22:41 AM, Old: 700, New: 650
Sample2 Changed: 4/23/2018 10:34:02 AM, Old:Sample2, New:1
Sample2 Changed: 4/23/2018 10:42:30 AM, Old:1, New:2
Sample2 Changed: 4/23/2018 10:48:41 AM, Old:2, New:3
Sample2 Changed: 4/23/2018 10:56:39 AM, Old:3, New:4
Sample2 Changed: 4/23/2018 11:03:55 AM, Old:4, New:5
Sample2 Changed: 4/23/2018 11:11:07 AM, Old:5, New:6
Sample2 Changed: 4/23/2018 11:18:00 AM, Old:6, New:7
Sample2 Changed: 4/23/2018 11:25:58 AM, Old:7, New:8
End Method Modifications

fondo,
fondo
Collection Time: 4/23/2018 11:31:02 AM
Operator Name  :
Scan Software Version: 1.2(147)
Parameter List :
Instrument                        Cary Eclipse
Instrument Serial Number          EL00063371
Data mode                         Fluorescence
Scan mode                         Emission
X Mode                            Wavelength (nm)
Start (nm)                        360.00
Stop (nm)                         650.00
Ex. Wavelength (nm)               350.00
Ex. Slit (nm)                     5
Em. Slit (nm)                     5
Scan rate (nm/min)                600.00
Data interval (nm)                1.0000
Averaging Time (s)                0.1000
Excitation filter                 Auto
Emission filter                   Open
PMT voltage (V)                   650
Corrected spectra                 OFF
Multicell holder                  Multicell
Multi zero                       OFF
Method Log     :
Method Name    : Default
Date/Time stamp: 4/23/2018 10:20:05 AM
Method Modifications:
Emission Wavelength Changed: 4/23/2018 10:20:39 AM, Old: 400.00, New: 360.00
Stop Wavelength Changed: 4/23/2018 10:20:39 AM, Old: 600.00, New: 650.00
Overlayed Graphs Changed: 4/23/2018 10:20:52 AM, Old:OFF, New:ON
Cell Changer Changed: 4/23/2018 10:20:52 AM, Old:OFF, New:ON
Cell2 Changed: 4/23/2018 10:20:52 AM, Old:OFF, New:ON
Monitoring device: Changed: 4/23/2018 10:20:52 AM, Old:PCB 150, New:Block
PMT Volts Changed: 4/23/2018 10:21:59 AM, Old:600, New:700
Emission PMT (V): Changed: 4/23/2018 10:21:59 AM, Old: 600, New: 700
PMT Volts Changed: 4/23/2018 10:22:41 AM, Old:700, New:650
Emission PMT (V): Changed: 4/23/2018 10:22:41 AM, Old: 700, New: 650
Sample2 Changed: 4/23/2018 10:34:02 AM, Old:Sample2, New:1
Sample2 Changed: 4/23/2018 10:42:30 AM, Old:1, New:2
Sample2 Changed: 4/23/2018 10:48:41 AM, Old:2, New:3
Sample2 Changed: 4/23/2018 10:56:39 AM, Old:3, New:4
Sample2 Changed: 4/23/2018 11:03:55 AM, Old:4, New:5
Sample2 Changed: 4/23/2018 11:11:07 AM, Old:5, New:6
Sample2 Changed: 4/23/2018 11:18:00 AM, Old:6, New:7
Sample2 Changed: 4/23/2018 11:25:58 AM, Old:7, New:8
Sample2 Changed: 4/23/2018 11:31:02 AM, Old:8, New:fondo
End Method Modifications

